# Scan along dir: [2. 1. 0.]
# t	Energy(eV)
0.000000000000000000e+00 2.763766063771996961e+00
1.000000000000000056e-01 2.779398617620436163e+00
2.000000000000000111e-01 2.798861596924365092e+00
3.000000000000000444e-01 2.821598058143266030e+00
4.000000000000000222e-01 2.846982569938562690e+00
5.000000000000000000e-01 2.874348556081196104e+00
6.000000000000000888e-01 2.902985059297166437e+00
7.000000000000000666e-01 2.932194417540025633e+00
8.000000000000000444e-01 2.961250363384904993e+00
9.000000000000000222e-01 2.989463245745667130e+00
1.000000000000000000e+00 3.016218307526298048e+00
1.100000000000000089e+00 3.040986186166259042e+00
1.200000000000000178e+00 3.063299570506063940e+00
1.300000000000000044e+00 3.082756280885819322e+00
1.400000000000000133e+00 3.099012175086336196e+00
1.500000000000000000e+00 3.111781797160799723e+00
1.600000000000000089e+00 3.120846465150540983e+00
1.700000000000000178e+00 3.126060891435652245e+00
1.800000000000000044e+00 3.127365329577211028e+00
1.900000000000000133e+00 3.124798000467762016e+00
2.000000000000000000e+00 3.118523958402497520e+00
2.100000000000000089e+00 3.108938349088352204e+00
2.200000000000000178e+00 3.096934720766921334e+00
2.300000000000000266e+00 3.083331495507547704e+00
2.400000000000000355e+00 3.068026985726697742e+00
2.500000000000000000e+00 3.051243755797630186e+00
2.600000000000000089e+00 3.033217914211283173e+00
2.700000000000000178e+00 3.014163436361749326e+00
2.800000000000000266e+00 2.994713481930868948e+00
2.900000000000000355e+00 2.975619739339208980e+00
3.000000000000000000e+00 2.957629433728937052e+00
3.100000000000000089e+00 2.941429130014549642e+00
3.200000000000000178e+00 2.927565951743631434e+00
3.300000000000000266e+00 2.916469396833711869e+00
3.400000000000000355e+00 2.908474129514821982e+00
3.500000000000000000e+00 2.903818456872057752e+00
3.600000000000000089e+00 2.902641257778054484e+00
3.700000000000000178e+00 2.905022907890275619e+00
3.800000000000000266e+00 2.910914704496629035e+00
3.900000000000000355e+00 2.920204264024739871e+00
4.000000000000000000e+00 2.932683192582667520e+00
4.100000000000000533e+00 2.948043137873928021e+00
4.200000000000000178e+00 2.965900279338351098e+00
4.299999999999999822e+00 2.985792829921525282e+00
4.400000000000000355e+00 3.007198202042349777e+00
4.500000000000000000e+00 3.029574975649867774e+00
4.600000000000000533e+00 3.052325179529217003e+00
4.700000000000000178e+00 3.074885026594325055e+00
4.800000000000000711e+00 3.096685320082999127e+00
4.900000000000000355e+00 3.117161919894238409e+00
5.000000000000000000e+00 3.135769407223131022e+00
5.100000000000000533e+00 3.151974528254773311e+00
5.200000000000000178e+00 3.165261740600123996e+00
5.300000000000000711e+00 3.175135220100837152e+00
5.400000000000000355e+00 3.181104169492269484e+00
5.500000000000000000e+00 3.052441601049811659e+00
5.600000000000000533e+00 3.054832057304731840e+00
5.700000000000000178e+00 3.057757557653473235e+00
5.800000000000000711e+00 3.061063421507970617e+00
5.900000000000000355e+00 3.064570226257715468e+00
6.000000000000000000e+00 3.068111914007182861e+00
6.100000000000000533e+00 3.071531134881148262e+00
6.200000000000000178e+00 3.074685738288954084e+00
6.300000000000000711e+00 3.077465671648019541e+00
6.400000000000000355e+00 3.079788385235875836e+00
6.500000000000000000e+00 3.081603522724303268e+00
6.600000000000000533e+00 3.082892404032620881e+00
6.700000000000000178e+00 3.083665182624407031e+00
6.800000000000000711e+00 3.083949722952527672e+00
6.900000000000000355e+00 3.083788134049811891e+00
7.000000000000000000e+00 3.083227995124406817e+00
7.100000000000000533e+00 3.082319112342837730e+00
7.200000000000000178e+00 3.081104736292142654e+00
7.300000000000000711e+00 3.079625494222270277e+00
7.400000000000000355e+00 3.077913346817263029e+00
7.500000000000000000e+00 3.075987081768305487e+00
7.600000000000000533e+00 3.073842566960820033e+00
7.700000000000000178e+00 3.071390372374147137e+00
7.800000000000000711e+00 3.029941751559089180e+00
7.900000000000000355e+00 3.021655031996344221e+00
8.000000000000000000e+00 3.013834168244315492e+00
8.099999999999999645e+00 3.006548651261234273e+00
8.200000000000001066e+00 2.999855231037896974e+00
8.300000000000000711e+00 2.993821703931920375e+00
8.400000000000000355e+00 2.988497419690369306e+00
8.500000000000000000e+00 2.983950385818428863e+00
8.599999999999999645e+00 2.980226309794274719e+00
8.700000000000001066e+00 2.977373749489026444e+00
8.800000000000000711e+00 2.975437939791929054e+00
8.900000000000000355e+00 2.974473629894931470e+00
9.000000000000000000e+00 2.974515170881061543e+00
9.099999999999999645e+00 2.975603285810692888e+00
9.200000000000001066e+00 2.977789906694171762e+00
9.300000000000000711e+00 2.981083529599573012e+00
9.400000000000000355e+00 2.985506752423443988e+00
9.500000000000000000e+00 2.991068378296927399e+00
9.600000000000001421e+00 2.997755443700730105e+00
9.700000000000001066e+00 3.005527481569425952e+00
9.800000000000000711e+00 3.014311394523029097e+00
9.900000000000000355e+00 3.024027328243233281e+00
1.000000000000000000e+01 3.034531911985388408e+00
1.010000000000000142e+01 3.045663066363923033e+00
1.020000000000000107e+01 3.057245601097973164e+00
1.030000000000000071e+01 3.069057058978096553e+00
1.040000000000000036e+01 3.080291326486435999e+00
1.050000000000000000e+01 3.040411391268872165e+00
1.060000000000000142e+01 3.039946056014728448e+00
1.070000000000000107e+01 3.039887942947980370e+00
1.080000000000000071e+01 3.040121240432802630e+00
1.090000000000000036e+01 3.040839655715072976e+00
1.100000000000000000e+01 3.042124307098490021e+00
1.110000000000000142e+01 3.043993777294454084e+00
1.120000000000000107e+01 3.046411254252269440e+00
1.130000000000000071e+01 3.049333159288649675e+00
1.140000000000000036e+01 3.052670494701198667e+00
1.150000000000000000e+01 3.056322411085214519e+00
1.160000000000000142e+01 3.060166097934862606e+00
1.170000000000000107e+01 3.064061743626103507e+00
1.180000000000000071e+01 3.067888126628989021e+00
1.190000000000000036e+01 3.071485926450126858e+00
1.200000000000000000e+01 3.074716968537632322e+00
1.210000000000000142e+01 3.077473567533608900e+00
1.220000000000000107e+01 3.079688706919992747e+00
1.230000000000000071e+01 3.081330412524520224e+00
1.240000000000000036e+01 3.082408754517536487e+00
1.250000000000000000e+01 3.083001939514952383e+00
1.260000000000000142e+01 3.083272700153747437e+00
1.270000000000000107e+01 3.083433842397000024e+00
1.280000000000000071e+01 3.083683267520272331e+00
1.290000000000000036e+01 3.084165910890177553e+00
1.300000000000000000e+01 3.084955042298263894e+00
1.310000000000000142e+01 3.086057615512554975e+00
1.320000000000000107e+01 3.087413820809588039e+00
1.330000000000000071e+01 3.088879390447442752e+00
1.340000000000000036e+01 3.090147032965126606e+00
1.350000000000000000e+01 3.089757723484889418e+00
1.360000000000000142e+01 3.064222606135095894e+00
1.370000000000000107e+01 3.061070742409783385e+00
1.380000000000000071e+01 3.058548812849574361e+00
1.390000000000000036e+01 3.056149012784048935e+00
1.400000000000000000e+01 3.054212895266184891e+00
1.410000000000000142e+01 3.053072443830611160e+00
1.420000000000000107e+01 3.052802070610554086e+00
1.430000000000000071e+01 3.053403624796448668e+00
1.440000000000000036e+01 3.054812093658566319e+00
1.450000000000000000e+01 3.056936366314176645e+00
1.460000000000000142e+01 3.059685680229549121e+00
1.470000000000000107e+01 3.062927153893720167e+00
1.480000000000000071e+01 3.066493909553854369e+00
1.490000000000000036e+01 3.070172794332720834e+00
1.500000000000000000e+01 3.073753404335191952e+00
1.510000000000000142e+01 3.077129946613173406e+00
1.520000000000000107e+01 3.080179691178889456e+00
1.530000000000000071e+01 3.082806991999599067e+00
1.540000000000000036e+01 3.084948776764166567e+00
1.550000000000000000e+01 3.086570443979639755e+00
1.560000000000000142e+01 3.087671912487036430e+00
1.570000000000000107e+01 3.088273316825825177e+00
1.580000000000000071e+01 3.088409585077017905e+00
1.590000000000000036e+01 3.088129007990696007e+00
1.600000000000000000e+01 3.087480339329223611e+00
1.610000000000000142e+01 3.086511036060038737e+00
1.619999999999999929e+01 3.085263785965902894e+00
1.630000000000000071e+01 3.083776484507243509e+00
1.640000000000000213e+01 3.082079048332564852e+00
1.650000000000000000e+01 3.080186484183372375e+00
1.660000000000000142e+01 3.078082994916467641e+00
1.669999999999999929e+01 3.075611610287428022e+00
1.680000000000000071e+01 3.033825449378066086e+00
1.690000000000000213e+01 3.025837735480694679e+00
1.700000000000000000e+01 3.018361732351691806e+00
1.710000000000000142e+01 3.011461847767532340e+00
1.719999999999999929e+01 3.005198460510344116e+00
1.730000000000000071e+01 2.999621719406826870e+00
1.740000000000000213e+01 2.994802474373908119e+00
1.750000000000000000e+01 2.990787682195710229e+00
1.760000000000000142e+01 2.987624759770301175e+00
1.769999999999999929e+01 2.985360968635269341e+00
1.780000000000000071e+01 2.984046535773899222e+00
1.790000000000000213e+01 2.983727452527186852e+00
1.800000000000000000e+01 2.984431060923786294e+00
1.810000000000000142e+01 2.986221161352869746e+00
1.819999999999999929e+01 2.989105056431423879e+00
1.830000000000000071e+01 2.993114554340528422e+00
1.840000000000000213e+01 2.998257209764932707e+00
1.850000000000000000e+01 3.004530225525073206e+00
1.860000000000000142e+01 3.011904085294439426e+00
1.869999999999999929e+01 3.020329235554111147e+00
1.880000000000000071e+01 3.029715665596303342e+00
1.890000000000000213e+01 3.039941330867382163e+00
1.900000000000000000e+01 3.050853074927982078e+00
1.910000000000000142e+01 3.062291516801596281e+00
1.920000000000000284e+01 3.074047211947680491e+00
1.930000000000000071e+01 3.085617019713804421e+00
1.940000000000000213e+01 3.049243907517786845e+00
1.950000000000000000e+01 3.049022034524861979e+00
1.960000000000000142e+01 3.049105134375637238e+00
1.970000000000000284e+01 3.049363569990354517e+00
1.980000000000000071e+01 3.050080931135223050e+00
1.990000000000000213e+01 3.051350870064664100e+00
2.000000000000000000e+01 3.053217306553987598e+00
2.010000000000000142e+01 3.055666679490277371e+00
2.020000000000000284e+01 3.058656386051577414e+00
2.030000000000000071e+01 3.062113004773987512e+00
2.040000000000000213e+01 3.065956274499619383e+00
2.050000000000000000e+01 3.070070390091906631e+00
2.060000000000000142e+01 3.074330785228200469e+00
2.070000000000000284e+01 3.078604739467015072e+00
2.080000000000000071e+01 3.082773537332384350e+00
2.090000000000000213e+01 3.086687717289747113e+00
2.100000000000000000e+01 3.090216750524250600e+00
2.110000000000000142e+01 3.093271712638262283e+00
2.120000000000000284e+01 3.095795918035285865e+00
2.130000000000000071e+01 3.097763449765590593e+00
2.140000000000000213e+01 3.099204704069679295e+00
2.150000000000000000e+01 3.100237592590495250e+00
2.160000000000000142e+01 3.101059932827511023e+00
2.170000000000000284e+01 3.101885558702184298e+00
2.180000000000000071e+01 3.102889249007733774e+00
2.190000000000000213e+01 3.104175356347521841e+00
2.200000000000000000e+01 3.105777306615546962e+00
2.210000000000000142e+01 3.107655458155982764e+00
2.220000000000000284e+01 3.109687976391928288e+00
2.230000000000000071e+01 3.111607726476810498e+00
2.240000000000000213e+01 3.112489782385487569e+00
2.250000000000000000e+01 3.079298349980450489e+00
2.260000000000000142e+01 3.077257627783317684e+00
2.270000000000000284e+01 3.075867419731510566e+00
2.280000000000000071e+01 3.074531464649894019e+00
2.290000000000000213e+01 3.073428680581026917e+00
2.300000000000000000e+01 3.072964404780157643e+00
2.310000000000000142e+01 3.073333387822092977e+00
2.320000000000000284e+01 3.074617883742204683e+00
2.330000000000000071e+01 3.076825753499568883e+00
2.340000000000000213e+01 3.079904994680300767e+00
2.350000000000000000e+01 3.083763150714134760e+00
2.360000000000000142e+01 3.088305413474047079e+00
2.370000000000000284e+01 3.093413373758287843e+00
2.380000000000000071e+01 3.098949816483950404e+00
2.390000000000000213e+01 3.104732080463902477e+00
2.400000000000000000e+01 3.110538091099481761e+00
2.410000000000000142e+01 3.116246815260041991e+00
2.420000000000000284e+01 3.121756352541707358e+00
2.430000000000000071e+01 3.126966516592047718e+00
2.440000000000000213e+01 3.131801811329652629e+00
2.450000000000000000e+01 3.136209931122147854e+00
2.460000000000000142e+01 3.140159791345980445e+00
2.470000000000000284e+01 3.143634073395553230e+00
2.480000000000000071e+01 3.146620491237727801e+00
2.490000000000000213e+01 3.149108719354464903e+00
2.500000000000000000e+01 3.151081869735243401e+00
2.510000000000000142e+01 3.152508154420381015e+00
2.520000000000000284e+01 3.153339338532481051e+00
2.530000000000000071e+01 3.153496663807331402e+00
2.540000000000000213e+01 3.152832958845263267e+00
2.550000000000000000e+01 3.150939049719416740e+00
2.560000000000000142e+01 3.107635574278243773e+00
2.570000000000000284e+01 3.097949763160253056e+00
2.580000000000000071e+01 3.088188488229150597e+00
2.590000000000000213e+01 3.078413972293406964e+00
2.600000000000000000e+01 3.068701694965677351e+00
2.610000000000000142e+01 3.059127289005568517e+00
2.620000000000000284e+01 3.049769498834690395e+00
2.630000000000000071e+01 3.040708033805578303e+00
2.640000000000000213e+01 3.032028973875113387e+00
2.650000000000000000e+01 3.023817172672667919e+00
2.660000000000000142e+01 3.016150236821615760e+00
2.670000000000000284e+01 3.009113100750006708e+00
2.680000000000000071e+01 3.002743227092143918e+00
2.690000000000000213e+01 2.997044455024141740e+00
2.700000000000000000e+01 2.991940566523920264e+00
2.710000000000000142e+01 2.987178289601724934e+00
2.720000000000000284e+01 2.982070827763222187e+00
2.730000000000000071e+01 2.974621732867098078e+00
2.740000000000000213e+01 2.959997836659801429e+00
2.750000000000000000e+01 2.939323432979454864e+00
2.760000000000000142e+01 2.918364082140314508e+00
2.770000000000000284e+01 2.897934719027550621e+00
2.780000000000000071e+01 2.878062387703464786e+00
2.790000000000000213e+01 2.859002249008164576e+00
2.800000000000000000e+01 2.841038632440110234e+00
2.810000000000000142e+01 2.824434611071745316e+00
2.820000000000000284e+01 2.809407865555528794e+00
2.830000000000000071e+01 2.796081409740962087e+00
2.840000000000000213e+01 2.784444154847184549e+00
2.850000000000000000e+01 2.774301255074352213e+00
2.860000000000000142e+01 2.765244678300711634e+00
2.870000000000000284e+01 2.756693642542698441e+00
2.880000000000000071e+01 2.748017446529171792e+00
2.890000000000000213e+01 2.738627152547976618e+00
2.900000000000000000e+01 2.727993640958596089e+00
2.910000000000000142e+01 2.715603968940177637e+00
2.920000000000000284e+01 2.700872686413984702e+00
2.930000000000000071e+01 2.683259695793811073e+00
2.940000000000000213e+01 2.663688813382556475e+00
2.950000000000000000e+01 2.644320167743807737e+00
2.960000000000000142e+01 2.626384800739912428e+00
2.970000000000000284e+01 2.610789807972477838e+00
2.980000000000000071e+01 2.598441496064966216e+00
2.990000000000000213e+01 2.590197706890300822e+00
3.000000000000000000e+01 2.586825916133543402e+00
3.010000000000000142e+01 2.588831243384782432e+00
3.020000000000000284e+01 2.596522446301987586e+00
3.030000000000000071e+01 2.609946623072926464e+00
3.040000000000000213e+01 2.628859154687460009e+00
3.050000000000000000e+01 2.652668751020014426e+00
3.060000000000000142e+01 2.680192533759306883e+00
3.070000000000000284e+01 2.708871058534881193e+00
3.080000000000000071e+01 2.627167081228776624e+00
3.090000000000000213e+01 2.619015863611482864e+00
3.100000000000000000e+01 2.612862494876682540e+00
3.110000000000000142e+01 2.609314773235253959e+00
3.120000000000000284e+01 2.608923043133416719e+00
3.130000000000000071e+01 2.612113926617329440e+00
3.140000000000000213e+01 2.619141256879056634e+00
3.150000000000000000e+01 2.630108726789694984e+00
3.160000000000000142e+01 2.644883835144201445e+00
3.170000000000000284e+01 2.663026164787877015e+00
3.180000000000000071e+01 2.683433642193099544e+00
3.190000000000000213e+01 2.627194650000888476e+00
3.200000000000000000e+01 2.635185889735859099e+00
3.210000000000000142e+01 2.645153967111686377e+00
3.220000000000000284e+01 2.656887128466054460e+00
3.230000000000000426e+01 2.670090283011134602e+00
3.239999999999999858e+01 2.684422250748992766e+00
3.250000000000000000e+01 2.699508538719418205e+00
3.260000000000000142e+01 2.714972756243116514e+00
3.270000000000000284e+01 2.730462170919909504e+00
3.280000000000000426e+01 2.745669931650995821e+00
3.289999999999999858e+01 2.760350151328995860e+00
3.300000000000000000e+01 2.774314220520523122e+00
3.310000000000000142e+01 2.787418410179425265e+00
3.320000000000000284e+01 2.799552887352292796e+00
3.330000000000000426e+01 2.810618318227355861e+00
3.339999999999999858e+01 2.820500851911187379e+00
3.350000000000000000e+01 2.829019029473113456e+00
3.360000000000000142e+01 2.835743709199053608e+00
3.370000000000000284e+01 2.827558203988824292e+00
3.380000000000000426e+01 2.820740769236677714e+00
3.389999999999999858e+01 2.813381650563346881e+00
3.400000000000000000e+01 2.805765059801750283e+00
3.410000000000000142e+01 2.798188397496757407e+00
3.420000000000000284e+01 2.790930893537983515e+00
3.430000000000000426e+01 2.784252288668888742e+00
3.439999999999999858e+01 2.778381244314255039e+00
3.450000000000000000e+01 2.773511930400278658e+00
3.460000000000000142e+01 2.769794348968254383e+00
3.470000000000000284e+01 2.767335911828307182e+00
3.480000000000000426e+01 2.766199103711427298e+00
3.489999999999999858e+01 2.766408595687465777e+00
3.500000000000000000e+01 2.767956126033236597e+00
3.510000000000000142e+01 2.770809247847558332e+00
3.520000000000000284e+01 2.774919217200848109e+00
3.530000000000000426e+01 2.780227812080795502e+00
3.539999999999999858e+01 2.786667520604831694e+00
3.550000000000000000e+01 2.794165333877931534e+00
3.560000000000000142e+01 2.802637906288909964e+00
3.570000000000000284e+01 2.812009471156181828e+00
3.580000000000000426e+01 2.822193766018958883e+00
3.589999999999999858e+01 2.833082783718144704e+00
3.600000000000000000e+01 2.844583654137398554e+00
3.610000000000000142e+01 2.856588003526467023e+00
3.620000000000000284e+01 2.868981450338899286e+00
3.630000000000000426e+01 2.881649509159247113e+00
3.639999999999999858e+01 2.894476296442623831e+00
3.650000000000000000e+01 2.907342623582738650e+00
3.660000000000000142e+01 2.920146938040881324e+00
3.670000000000000284e+01 2.932766411386775296e+00
3.680000000000000426e+01 2.945097408273640305e+00
3.689999999999999858e+01 2.957054133469063206e+00
3.700000000000000000e+01 2.968550537010462342e+00
3.710000000000000142e+01 2.979510810280340039e+00
3.720000000000000284e+01 2.989871404495183072e+00
3.730000000000000426e+01 2.999590771665334721e+00
3.739999999999999858e+01 3.008631230273199897e+00
3.750000000000000000e+01 3.016979171666064108e+00
3.760000000000000142e+01 3.024634451946211833e+00
3.770000000000000284e+01 3.031615443873336702e+00
3.780000000000000426e+01 3.037946454831812471e+00
3.789999999999999858e+01 3.043657431947731418e+00
3.800000000000000000e+01 3.048768962753449330e+00
3.810000000000000142e+01 3.053287864351808434e+00
3.820000000000000284e+01 3.057195297416801072e+00
3.830000000000000426e+01 3.060445363181320211e+00
3.840000000000000568e+01 3.062973326718613443e+00
3.850000000000000000e+01 3.064710626471849331e+00
3.860000000000000142e+01 3.065604090551635519e+00
3.870000000000000284e+01 3.065636665894877932e+00
3.880000000000000426e+01 3.064839552095303343e+00
3.890000000000000568e+01 3.063291225187048994e+00
3.900000000000000000e+01 3.061107916117846273e+00
3.910000000000000142e+01 3.058429881677044548e+00
3.920000000000000284e+01 3.055406264934462435e+00
3.930000000000000426e+01 3.052187918762027330e+00
3.940000000000000568e+01 3.048918305009590490e+00
3.950000000000000000e+01 3.045736912229652482e+00
3.960000000000000142e+01 3.042772826920761897e+00
3.970000000000000284e+01 3.040150333508515157e+00
3.980000000000000426e+01 3.037973784125738153e+00
