# Scan along dir: [0. 0. 1.]
# t	Energy(eV)
1.300000000000000044e+00 6.083620969766685427e-01
1.400000000000000133e+00 3.556948036159144344e-01
1.500000000000000000e+00 1.538938286896720520e-01
1.600000000000000089e+00 -8.824149012223170274e-03
1.699999999999999956e+00 -1.411750931300992384e-01
1.800000000000000044e+00 -2.494242533991268829e-01
1.899999999999999911e+00 -3.384664735198525953e-01
2.000000000000000000e+00 -4.120009901332135627e-01
2.100000000000000089e+00 -4.728518108921533347e-01
2.200000000000000178e+00 -5.231882926630553321e-01
2.299999999999999822e+00 -5.647166973211250607e-01
2.399999999999999911e+00 -5.987584843985964689e-01
2.500000000000000000e+00 -6.264017689014882428e-01
2.599999999999999645e+00 -6.485154253564329174e-01
2.700000000000000178e+00 -6.658230913988663069e-01
2.799999999999999822e+00 -6.789583135869343700e-01
2.899999999999999911e+00 -6.884511306862042268e-01
3.000000000000000000e+00 -6.947863032245442660e-01
3.099999999999999645e+00 -6.983994174773027197e-01
3.200000000000000178e+00 -6.996941837032775169e-01
3.299999999999999822e+00 -6.989940778358252338e-01
3.399999999999999467e+00 -6.965759896899088588e-01
3.500000000000000000e+00 -6.926567399378869005e-01
3.599999999999999645e+00 -6.874235744203476273e-01
3.700000000000000178e+00 -6.810495570173547009e-01
3.799999999999999822e+00 -6.736904403642758332e-01
3.899999999999999467e+00 -6.654808279686501571e-01
4.000000000000000000e+00 -6.565540035362005256e-01
4.099999999999999645e+00 -6.470050373329798710e-01
4.200000000000000178e+00 -6.369676490652302903e-01
4.299999999999999822e+00 -6.265008181629254658e-01
4.399999999999999467e+00 -6.156998177570467412e-01
4.500000000000000000e+00 -6.046006056789186012e-01
4.599999999999999645e+00 -5.932643754419335558e-01
4.700000000000000178e+00 -5.817512636810269200e-01
4.799999999999999822e+00 -5.700900060670206493e-01
4.899999999999999467e+00 -5.583131593476631238e-01
5.000000000000000000e+00 -5.464577929023497482e-01
5.099999999999999645e+00 -5.345423134069418047e-01
5.199999999999999289e+00 -5.225940724345194965e-01
5.299999999999999822e+00 -5.106295739601383055e-01
5.399999999999999467e+00 -4.986849683326282090e-01
5.499999999999999112e+00 -4.867593119778041988e-01
5.599999999999999645e+00 -4.749024555629710598e-01
5.699999999999999289e+00 -4.631166639163284415e-01
5.799999999999999822e+00 -4.514288060488023113e-01
5.899999999999999467e+00 -4.398727073842287894e-01
5.999999999999999112e+00 -4.284732337537309199e-01
6.099999999999999645e+00 -4.172685653766667890e-01
6.199999999999999289e+00 -4.062950853533791040e-01
6.299999999999999822e+00 -3.955875057017639307e-01
6.399999999999999467e+00 -3.851888194846431190e-01
6.499999999999999112e+00 -3.751429362078564367e-01
6.599999999999999645e+00 -3.654882560772043654e-01
6.699999999999999289e+00 -3.562551418190107455e-01
6.799999999999998934e+00 -3.474554946395675969e-01
6.899999999999999467e+00 -3.390632244064062384e-01
6.999999999999999112e+00 -3.310303259393645448e-01
7.099999999999999645e+00 -3.233019011014026667e-01
7.199999999999999289e+00 -3.158214174223465953e-01
7.299999999999998934e+00 -3.085426844921279610e-01
7.399999999999999467e+00 -3.014227492041032797e-01
7.499999999999999112e+00 -2.944318495533582158e-01
7.599999999999999645e+00 -2.875457344449379171e-01
7.699999999999999289e+00 -2.807487606963574578e-01
7.799999999999998934e+00 -2.740310415597226879e-01
7.899999999999999467e+00 -2.673902167090651538e-01
7.999999999999999112e+00 -2.608313661343766299e-01
8.099999999999999645e+00 -2.543643620775353220e-01
8.199999999999999289e+00 -2.480025046622622575e-01
8.299999999999998934e+00 -2.417638428993562627e-01
8.400000000000000355e+00 -2.356645503975296485e-01
8.500000000000000000e+00 -2.297240515808161021e-01
8.599999999999999645e+00 -2.239594556605255526e-01
8.699999999999999289e+00 -2.183879379570066170e-01
8.799999999999998934e+00 -2.130245540182742481e-01
8.900000000000000355e+00 -2.078822413111409695e-01
9.000000000000000000e+00 -2.029727057651347089e-01
9.099999999999999645e+00 -1.983046763318512262e-01
9.199999999999999289e+00 -1.938864317983628460e-01
9.299999999999998934e+00 -1.897190654467486581e-01
9.400000000000000355e+00 -1.858020316666930682e-01
9.500000000000000000e+00 -1.821293418409473119e-01
9.599999999999999645e+00 -1.786900453436048863e-01
9.699999999999999289e+00 -1.754683487850403623e-01
9.800000000000000711e+00 -1.724440479772493262e-01
9.900000000000000355e+00 -1.695977363703677909e-01
1.000000000000000000e+01 -1.669079815363581076e-01
1.009999999999999964e+01 -1.643604476596536301e-01
1.019999999999999929e+01 -1.619347930584598139e-01
1.030000000000000071e+01 -1.595706372685685714e-01
1.040000000000000036e+01 -1.571285459860125577e-01
1.050000000000000000e+01 -1.545021159153909807e-01
1.059999999999999964e+01 -1.516821228233165009e-01
1.069999999999999929e+01 -1.486877132964985471e-01
1.080000000000000071e+01 -1.455277248991784234e-01
1.090000000000000036e+01 -1.421918966441206855e-01
1.100000000000000000e+01 -1.386678235417062588e-01
1.109999999999999964e+01 -1.349418189435622750e-01
1.119999999999999929e+01 -1.310401534990703887e-01
1.130000000000000071e+01 -1.269965908595476201e-01
1.140000000000000036e+01 -1.228568593841465884e-01
1.150000000000000000e+01 -1.186774596364879031e-01
1.159999999999999964e+01 -1.145214545006409956e-01
1.169999999999999929e+01 -1.104516682862084487e-01
1.180000000000000071e+01 -1.065376749593993644e-01
1.190000000000000036e+01 -1.028580798999034762e-01
1.200000000000000000e+01 -9.951654581743873962e-02
1.209999999999999964e+01 -9.667677775237315529e-02
1.219999999999999929e+01 -9.469200899344887290e-02
1.229999999999999893e+01 -9.524405966644211574e-02
1.240000000000000036e+01 -9.844483323410280207e-02
1.250000000000000000e+01 -1.008606015754840435e-01
1.259999999999999964e+01 -1.188169273160464279e-01
1.269999999999999929e+01 -1.185715266183429151e-01
1.279999999999999893e+01 -1.354148386591917941e-01
1.290000000000000036e+01 -1.388688130914816909e-01
1.300000000000000000e+01 -1.400938565760356802e-01
1.309999999999999964e+01 -1.397182720463225891e-01
1.319999999999999929e+01 -1.382414829930640465e-01
1.329999999999999893e+01 -1.360399308288409159e-01
1.340000000000000036e+01 -1.332440610921890034e-01
1.350000000000000000e+01 -1.295131557410713619e-01
1.359999999999999964e+01 -1.249090196583102497e-01
1.369999999999999929e+01 -1.197560524982725916e-01
1.379999999999999893e+01 -1.142816163304183341e-01
1.390000000000000036e+01 -1.086607541350814721e-01
1.400000000000000000e+01 -1.030315226099474124e-01
1.409999999999999964e+01 -9.751051806196153748e-02
1.419999999999999929e+01 -9.219297987522656612e-02
1.429999999999999893e+01 -8.717064476368374670e-02
1.440000000000000036e+01 -8.255544580027773804e-02
1.450000000000000000e+01 -7.869723198437617029e-02
1.459999999999999964e+01 -9.851970014511879370e-02
1.469999999999999929e+01 -9.155870794073761587e-02
1.479999999999999893e+01 -8.460158558210428836e-02
1.490000000000000036e+01 -7.774591513741402338e-02
1.500000000000000000e+01 -7.106809635800859226e-02
1.509999999999999964e+01 -6.463129432832470656e-02
1.519999999999999929e+01 -5.852845846807941399e-02
1.529999999999999893e+01 -5.281054579234334412e-02
1.540000000000000036e+01 -4.748632037214273183e-02
1.550000000000000000e+01 -4.257475060843596282e-02
1.559999999999999964e+01 -3.805362636672793286e-02
1.569999999999999929e+01 -3.393123207683101938e-02
1.579999999999999893e+01 -3.019396405800778282e-02
1.590000000000000036e+01 -2.682218855799467505e-02
1.600000000000000000e+01 -2.378697824863884591e-02
1.609999999999999787e+01 -2.106326595075991293e-02
1.619999999999999929e+01 -1.862511375461295415e-02
1.629999999999999716e+01 -1.644887167861286414e-02
1.639999999999999858e+01 -1.450738547573671156e-02
1.650000000000000000e+01 -1.278505751559322334e-02
1.659999999999999787e+01 -1.125363245668342671e-02
1.669999999999999929e+01 -9.900232795930108409e-03
1.679999999999999716e+01 -8.700327790796436034e-03
1.689999999999999858e+01 -7.639759917453581295e-03
1.700000000000000000e+01 -6.706835913227404689e-03
1.709999999999999787e+01 -5.884127457470800238e-03
1.719999999999999929e+01 -5.159384919603215991e-03
1.729999999999999716e+01 -4.518842247539289758e-03
1.739999999999999858e+01 -3.958587346387432149e-03
1.750000000000000000e+01 -3.463277021071853312e-03
1.759999999999999787e+01 -3.031293613609875592e-03
1.769999999999999929e+01 -2.649190479074636784e-03
1.780000000000000071e+01 -2.317118554741259828e-03
1.789999999999999858e+01 -2.022862316652496162e-03
1.800000000000000000e+01 -1.766256546251288029e-03
1.809999999999999787e+01 -1.541694324067588440e-03
1.819999999999999929e+01 -1.343592089909861897e-03
1.830000000000000071e+01 -1.171453068716576951e-03
1.839999999999999858e+01 -1.019590305767703597e-03
1.850000000000000000e+01 -8.880455913882201457e-04
1.859999999999999787e+01 -7.716932980623703031e-04
1.869999999999999929e+01 -6.696792914415716780e-04
1.880000000000000071e+01 -5.805779549623579783e-04
1.889999999999999858e+01 -5.045161169126011202e-04
1.900000000000000000e+01 -4.363990426452524218e-04
1.909999999999999787e+01 -3.785075980933250150e-04
1.919999999999999929e+01 -3.263805361837235353e-04
1.930000000000000071e+01 -2.824785115369543576e-04
1.939999999999999858e+01 -2.443986605604742124e-04
1.950000000000000000e+01 -2.111044033967779399e-04
1.959999999999999787e+01 -1.820659513764866233e-04
1.969999999999999929e+01 -1.567413338743328666e-04
1.980000000000000071e+01 -1.346595228137736910e-04
1.989999999999999858e+01 -1.154084124750376361e-04
2.000000000000000000e+01 -9.862757603285032815e-05
2.009999999999999787e+01 -8.400248686690758859e-05
2.019999999999999929e+01 -7.125774590654998519e-05
2.030000000000000071e+01 -6.015299129913387333e-05
2.039999999999999858e+01 -4.917322937814105899e-05
2.050000000000000000e+01 -4.086536181047151217e-05
2.059999999999999787e+01 -3.372793655476158392e-05
2.069999999999999929e+01 -2.745959732664005060e-05
2.080000000000000071e+01 -2.051236418543211926e-05
2.089999999999999858e+01 -1.436961485712373587e-05
2.100000000000000000e+01 -8.905419259797042741e-06
2.109999999999999787e+01 -4.081300557512435034e-06
2.119999999999999929e+01 -4.510909255905914961e-06
2.130000000000000071e+01 0.000000000000000000e+00
