# ts	Energy
2.600000000000000089e+00 4.700565835772434475e-01
2.649999999999999911e+00 2.308564354184796663e-01
2.700000000000000178e+00 3.087144429747512575e-02
2.750000000000000000e+00 -1.351383328124913241e-01
2.800000000000000266e+00 -2.716113443620629120e-01
2.850000000000000089e+00 -3.826254922750074172e-01
2.900000000000000355e+00 -4.716179869437535643e-01
2.950000000000000178e+00 -5.417400665768430379e-01
3.000000000000000000e+00 -5.956397721786284016e-01
3.050000000000000266e+00 -6.357398216787668588e-01
3.100000000000000089e+00 -6.640648379123446077e-01
3.150000000000000355e+00 -6.824625241249391294e-01
3.200000000000000178e+00 -6.924710002986502744e-01
3.250000000000000000e+00 -6.954905955402650441e-01
3.300000000000000266e+00 -6.926800587187882385e-01
3.350000000000000089e+00 -6.850911706171625148e-01
3.400000000000000355e+00 -6.735894199118672709e-01
3.450000000000000178e+00 -6.589578055962115322e-01
3.500000000000000000e+00 -6.418356600372772114e-01
3.550000000000000266e+00 -6.227990408004804301e-01
3.600000000000000089e+00 -6.023145728707848257e-01
3.650000000000000355e+00 -5.808006210898071231e-01
3.700000000000000178e+00 -5.585919423062195577e-01
3.750000000000000000e+00 -5.359867133412175022e-01
3.800000000000000266e+00 -5.132203988990382548e-01
3.850000000000000089e+00 -4.905010205411590718e-01
3.900000000000000355e+00 -4.679895393749662347e-01
3.950000000000000178e+00 -4.458263520615113329e-01
4.000000000000000000e+00 -4.241166579305892803e-01
4.050000000000000711e+00 -4.029505286219552396e-01
4.099999999999999645e+00 -3.823927223464531622e-01
4.150000000000000355e+00 -3.624969430068629705e-01
4.200000000000000178e+00 -3.432979907026179056e-01
4.250000000000000000e+00 -3.248226895927586177e-01
4.300000000000000711e+00 -3.070848638781140671e-01
4.349999999999999645e+00 -2.900927819003551456e-01
4.400000000000000355e+00 -2.738454885227326052e-01
4.450000000000000178e+00 -2.583381297433180457e-01
4.500000000000000000e+00 -2.435594795778897037e-01
4.550000000000000711e+00 -2.294957838952393914e-01
4.599999999999999645e+00 -2.161295479585021440e-01
4.650000000000000355e+00 -2.034416928323552476e-01
4.700000000000000178e+00 -1.914105433933062095e-01
4.750000000000000000e+00 -1.800135205468351707e-01
4.800000000000000711e+00 -1.692270255024981296e-01
4.849999999999999645e+00 -1.590271013298107938e-01
4.900000000000000355e+00 -1.493893782340540710e-01
4.950000000000000178e+00 -1.402894174654116810e-01
5.000000000000000000e+00 -1.317029173179027346e-01
5.050000000000000711e+00 -1.236057910420855777e-01
5.099999999999999645e+00 -1.159746746708347764e-01
5.150000000000000355e+00 -1.087865626228285976e-01
5.200000000000000178e+00 -1.020191600776483298e-01
5.250000000000000000e+00 -9.565061791582429862e-02
5.300000000000000711e+00 -8.966015906078661502e-02
5.349999999999999645e+00 -8.402753217127978402e-02
5.400000000000000355e+00 -7.873351680440832112e-02
5.450000000000000178e+00 -7.375940487779697463e-02
5.500000000000000000e+00 -6.908750685279274606e-02
5.550000000000000711e+00 -6.470066981222721836e-02
5.599999999999999645e+00 -6.058286878114582663e-02
5.650000000000000355e+00 -5.671859413489821478e-02
5.700000000000000178e+00 -5.309326970783523336e-02
5.750000000000000000e+00 -4.969280395225483815e-02
5.800000000000000711e+00 -4.650411033324663990e-02
5.849999999999999645e+00 -4.351457158952110049e-02
5.900000000000000355e+00 -4.071244254147998731e-02
5.950000000000000178e+00 -3.808639512072709010e-02
6.000000000000000000e+00 -3.562589762197321264e-02
6.050000000000000711e+00 -3.332081332158320919e-02
6.099999999999999645e+00 -3.116178905942268429e-02
6.150000000000000355e+00 -2.913982939769432789e-02
6.200000000000000178e+00 -2.724658622444486866e-02
6.250000000000000000e+00 -2.547403205616793898e-02
6.300000000000000711e+00 -2.381477459729985924e-02
6.349999999999999645e+00 -2.226171818696531801e-02
6.400000000000000355e+00 -2.080831851510511754e-02
6.450000000000000178e+00 -1.944828909325480026e-02
6.500000000000000000e+00 -1.817582336851586433e-02
6.550000000000000711e+00 -1.698535099994247233e-02
6.599999999999999645e+00 -1.587176655883393295e-02
6.650000000000000355e+00 -1.483017408054276842e-02
6.700000000000001066e+00 -1.385605054439054129e-02
6.750000000000000000e+00 -1.294505864898276570e-02
6.800000000000000711e+00 -1.209323102610015965e-02
6.849999999999999645e+00 -1.129676653370470518e-02
6.900000000000000355e+00 -1.055215900130912487e-02
6.950000000000001066e+00 -9.856047640497411777e-03
7.000000000000000000e+00 -9.205358219590120683e-03
7.050000000000000711e+00 -8.597148372929019899e-03
7.099999999999999645e+00 -8.028716642210387278e-03
7.150000000000000355e+00 -7.497474283912453075e-03
7.200000000000001066e+00 -7.001042506284971267e-03
7.250000000000000000e+00 -6.537144485720514098e-03
7.300000000000000711e+00 -6.103701319407850434e-03
7.349999999999999645e+00 -5.698723486325274479e-03
7.400000000000000355e+00 -5.320381071817426033e-03
7.450000000000001066e+00 -4.966922054961298016e-03
7.500000000000000000e+00 -4.636746383400947025e-03
7.550000000000000711e+00 -4.328324161881003107e-03
7.599999999999999645e+00 -4.040254154980882362e-03
7.650000000000000355e+00 -3.771194939810929014e-03
7.700000000000001066e+00 -3.519915683765972858e-03
7.750000000000000000e+00 -3.285239303347786688e-03
7.800000000000000711e+00 -3.066093121193436133e-03
7.849999999999999645e+00 -2.861451376143797631e-03
7.900000000000000355e+00 -2.670371565717921669e-03
7.950000000000001066e+00 -2.491951902366729144e-03
8.000000000000000000e+00 -2.325370199586895836e-03
8.050000000000000711e+00 -2.169841037163777742e-03
8.099999999999999645e+00 -2.024646458993029086e-03
8.150000000000000355e+00 -1.889099457970111473e-03
8.200000000000001066e+00 -1.762569358882970505e-03
8.250000000000000000e+00 -1.644453186443683990e-03
8.300000000000000711e+00 -1.534202433167042301e-03
8.349999999999999645e+00 -1.431293196877625462e-03
8.400000000000000355e+00 -1.335245528843564955e-03
8.450000000000001066e+00 -1.245600410921365864e-03
8.500000000000000000e+00 -1.161938593879696668e-03
8.550000000000000711e+00 -1.083859553256072417e-03
8.599999999999999645e+00 -1.010997894756560100e-03
8.650000000000000355e+00 -9.430042565785612396e-04
8.700000000000001066e+00 -8.795582767073817365e-04
8.750000000000000000e+00 -8.203538167479429433e-04
8.800000000000000711e+00 -7.651126329824009531e-04
8.849999999999999645e+00 -7.135690442878761530e-04
8.900000000000000355e+00 -6.654797252383382045e-04
8.950000000000001066e+00 -6.206120396323733246e-04
9.000000000000000000e+00 -5.787537524639674302e-04
9.050000000000000711e+00 -5.397022108462046219e-04
9.099999999999999645e+00 -5.032726891740502140e-04
9.150000000000000355e+00 -4.692886158106368555e-04
9.200000000000001066e+00 -4.375881077112175888e-04
9.250000000000000000e+00 -4.080165137012592425e-04
9.300000000000000711e+00 -3.804334214998483787e-04
9.349999999999999645e+00 -3.547048072953806752e-04
9.400000000000000355e+00 -3.307079622669739649e-04
9.450000000000001066e+00 -3.083256453737526215e-04
9.500000000000000000e+00 -2.874511717014804901e-04
9.550000000000000711e+00 -2.679826185953970707e-04
9.599999999999999645e+00 -2.498265563044554938e-04
9.650000000000000355e+00 -2.328937410593923119e-04
9.700000000000001066e+00 -2.171031801130318684e-04
9.750000000000000000e+00 -2.023775929376192551e-04
9.800000000000000711e+00 -1.886462968649915695e-04
9.849999999999999645e+00 -1.758417451860339042e-04
9.900000000000000355e+00 -1.639023371673431484e-04
9.950000000000001066e+00 -1.527692790248558197e-04
1.000000000000000000e+01 -1.423890587961551546e-04
1.005000000000000071e+01 -1.327105557202834518e-04
1.009999999999999964e+01 -1.236869320213607182e-04
1.015000000000000036e+01 -1.152734629958906964e-04
1.020000000000000107e+01 -1.074295932488311678e-04
1.025000000000000000e+01 -1.001166314744672547e-04
1.030000000000000071e+01 -9.329917342260074520e-05
1.034999999999999964e+01 -8.694340494619368087e-05
1.040000000000000036e+01 -8.101858526954330841e-05
1.045000000000000107e+01 -7.549536029571868312e-05
1.050000000000000000e+01 -7.034684928308720941e-05
1.055000000000000071e+01 -6.554738697195361397e-05
1.059999999999999964e+01 -6.107369667773809851e-05
1.065000000000000036e+01 -5.690357631982223552e-05
1.069999999999999929e+01 -5.301673365476489153e-05
1.075000000000000000e+01 -4.939378535651073321e-05
1.080000000000000071e+01 -4.601707393581122574e-05
1.084999999999999964e+01 -4.286975326017739008e-05
1.090000000000000036e+01 -3.993649679800981289e-05
1.094999999999999929e+01 -3.720266820783635353e-05
1.100000000000000000e+01 -3.465487231046893157e-05
1.105000000000000071e+01 -3.228032282631687622e-05
1.109999999999999964e+01 -3.006742790567784596e-05
1.115000000000000036e+01 -2.800513278344851642e-05
1.119999999999999929e+01 -2.608333660258921327e-05
1.125000000000000000e+01 -2.429239300782981559e-05
1.130000000000000071e+01 -2.262351974824383660e-05
1.134999999999999964e+01 -2.106833933890328581e-05
1.140000000000000036e+01 -1.961922925364234516e-05
1.144999999999999929e+01 -1.826891150358278537e-05
1.150000000000000000e+01 -1.701073128002050794e-05
1.155000000000000071e+01 -1.583833794382982774e-05
1.159999999999999964e+01 -1.474597434469870905e-05
1.165000000000000036e+01 -1.372815048972242380e-05
1.169999999999999929e+01 -1.277985152547955749e-05
1.175000000000000000e+01 -1.189628906494988314e-05
1.180000000000000071e+01 -1.107310544901096705e-05
1.184999999999999964e+01 -1.030614480646008246e-05
1.190000000000000036e+01 -9.591627691207804673e-06
1.194999999999999929e+01 -8.925945978344174137e-06
1.200000000000000000e+01 -8.305800399899254671e-06
1.205000000000000071e+01 -7.728042746624197434e-06
1.209999999999999964e+01 -7.189820184994033525e-06
1.215000000000000036e+01 -6.688412917732478036e-06
1.220000000000000107e+01 -6.221337912837299200e-06
1.225000000000000000e+01 -5.786224609227730298e-06
1.230000000000000071e+01 -5.380915575781131110e-06
1.234999999999999964e+01 -5.003353509724917103e-06
1.240000000000000036e+01 -4.651668502386741011e-06
1.245000000000000107e+01 -4.324075745021360717e-06
1.250000000000000000e+01 -4.018943442929412413e-06
1.255000000000000071e+01 -3.734714645542425160e-06
1.259999999999999964e+01 -3.469978772319137761e-06
1.265000000000000036e+01 -3.223391284556953451e-06
1.270000000000000107e+01 -2.993725435107563726e-06
1.275000000000000000e+01 -2.779810206909871795e-06
1.280000000000000071e+01 -2.580579711253250252e-06
1.284999999999999964e+01 -2.395017586920289432e-06
1.290000000000000036e+01 -2.222200454760070443e-06
1.295000000000000107e+01 -2.061247136531108026e-06
1.300000000000000000e+01 -1.911352276007249884e-06
1.305000000000000071e+01 -1.771747581980065434e-06
1.309999999999999964e+01 -1.641737194635339847e-06
1.315000000000000036e+01 -1.520657848086415243e-06
1.320000000000000107e+01 -1.407904216765842875e-06
1.325000000000000000e+01 -1.302898581467815120e-06
1.330000000000000071e+01 -1.205115710334325740e-06
1.334999999999999964e+01 -1.114054865691826990e-06
1.340000000000000036e+01 -1.029260807694498681e-06
1.345000000000000107e+01 -9.502990940823963228e-07
1.350000000000000000e+01 -8.767729786640643397e-07
1.355000000000000071e+01 -8.083040636819305291e-07
1.359999999999999964e+01 -7.445496508218241161e-07
1.365000000000000036e+01 -6.851831284571119340e-07
1.370000000000000107e+01 -6.299065287151961456e-07
1.375000000000000000e+01 -5.784354870641550406e-07
1.380000000000000071e+01 -5.305114059162008289e-07
1.384999999999999964e+01 -4.858877824531759870e-07
1.390000000000000036e+01 -4.443407206622396188e-07
1.395000000000000107e+01 -4.056565932053501911e-07
1.400000000000000000e+01 -3.696402330888304277e-07
1.405000000000000071e+01 -3.361055025408177244e-07
1.409999999999999964e+01 -3.048839185559870657e-07
1.415000000000000036e+01 -2.758149335591042473e-07
1.420000000000000107e+01 -2.487520873728499282e-07
1.425000000000000000e+01 -2.235556162411000969e-07
1.430000000000000071e+01 -2.000984591354892927e-07
1.434999999999999964e+01 -1.782595129284914037e-07
1.440000000000000036e+01 -1.579288011477331111e-07
1.445000000000000107e+01 -1.390013988356031405e-07
1.450000000000000000e+01 -1.213814666556345401e-07
1.455000000000000071e+01 -1.049776066075480685e-07
1.459999999999999964e+01 -8.970711462552571902e-08
1.465000000000000036e+01 -7.549118308247670939e-08
1.470000000000000107e+01 -6.225789972447159926e-08
1.475000000000000000e+01 -4.993867319669220706e-08
1.480000000000000071e+01 -3.847129415035510647e-08
1.484999999999999964e+01 -2.779643493155958822e-08
1.490000000000000036e+01 -1.785990155767080978e-08
1.495000000000000107e+01 -8.610013146892470104e-09
1.500000000000000000e+01 0.000000000000000000e+00
