# ts	Energy
2.600000000000000089e+00 4.700565835772434475e-01
2.700000000000000178e+00 3.087144429747512575e-02
2.800000000000000266e+00 -2.716113443620629120e-01
2.900000000000000355e+00 -4.716179869437535643e-01
3.000000000000000000e+00 -5.956397721786284016e-01
3.100000000000000089e+00 -6.640648379123446077e-01
3.200000000000000178e+00 -6.924710002986502744e-01
3.300000000000000266e+00 -6.926800587187882385e-01
3.400000000000000355e+00 -6.735894199118672709e-01
3.500000000000000000e+00 -6.418356600372772114e-01
3.600000000000000089e+00 -6.023145728707848257e-01
3.700000000000000178e+00 -5.585919423062195577e-01
3.800000000000000266e+00 -5.132203988990382548e-01
3.900000000000000355e+00 -4.679895393749662347e-01
4.000000000000000000e+00 -4.241166579305892803e-01
4.099999999999999645e+00 -3.823927223464531622e-01
4.200000000000000178e+00 -3.432979907026179056e-01
4.300000000000000711e+00 -3.070848638781140671e-01
4.400000000000000355e+00 -2.738454885227326052e-01
4.500000000000000000e+00 -2.435594795778897037e-01
4.599999999999999645e+00 -2.161295479585021440e-01
4.700000000000000178e+00 -1.914105433933062095e-01
4.800000000000000711e+00 -1.692270255024981296e-01
4.900000000000000355e+00 -1.493893782340540710e-01
5.000000000000000000e+00 -1.317029173179027346e-01
5.099999999999999645e+00 -1.159746746708347764e-01
5.200000000000000178e+00 -1.020191600776483298e-01
5.300000000000000711e+00 -8.966015906078661502e-02
5.400000000000000355e+00 -7.873351680440832112e-02
5.500000000000000000e+00 -6.908750685279274606e-02
5.599999999999999645e+00 -6.058286878114582663e-02
5.700000000000000178e+00 -5.309326970783523336e-02
5.800000000000000711e+00 -4.650411033324663990e-02
5.900000000000000355e+00 -4.071244254147998731e-02
6.000000000000000000e+00 -3.562589762197321264e-02
6.099999999999999645e+00 -3.116178905942268429e-02
6.200000000000000178e+00 -2.724658622444486866e-02
6.300000000000000711e+00 -2.381477459729985924e-02
6.400000000000000355e+00 -2.080831851510511754e-02
6.500000000000000000e+00 -1.817582336851586433e-02
6.599999999999999645e+00 -1.587176655883393295e-02
6.700000000000001066e+00 -1.385605054439054129e-02
6.800000000000000711e+00 -1.209323102610015965e-02
6.900000000000000355e+00 -1.055215900130912487e-02
7.000000000000000000e+00 -9.205358219590120683e-03
7.099999999999999645e+00 -8.028716642210387278e-03
7.200000000000001066e+00 -7.001042506284971267e-03
7.300000000000000711e+00 -6.103701319407850434e-03
7.400000000000000355e+00 -5.320381071817426033e-03
7.500000000000000000e+00 -4.636746383400947025e-03
7.599999999999999645e+00 -4.040254154980882362e-03
7.700000000000001066e+00 -3.519915683765972858e-03
7.800000000000000711e+00 -3.066093121193436133e-03
7.900000000000000355e+00 -2.670371565717921669e-03
8.000000000000000000e+00 -2.325370199586895836e-03
8.099999999999999645e+00 -2.024646458993029086e-03
8.200000000000001066e+00 -1.762569358882970505e-03
8.300000000000000711e+00 -1.534202433167042301e-03
8.400000000000000355e+00 -1.335245528843564955e-03
8.500000000000000000e+00 -1.161938593879696668e-03
8.599999999999999645e+00 -1.010997894756560100e-03
8.700000000000001066e+00 -8.795582767073817365e-04
8.800000000000000711e+00 -7.651126329824009531e-04
8.900000000000000355e+00 -6.654797252383382045e-04
9.000000000000000000e+00 -5.787537524639674302e-04
9.099999999999999645e+00 -5.032726891740502140e-04
9.200000000000001066e+00 -4.375881077112175888e-04
9.300000000000000711e+00 -3.804334214998483787e-04
9.400000000000000355e+00 -3.307079622669739649e-04
9.500000000000000000e+00 -2.874511717014804901e-04
9.599999999999999645e+00 -2.498265563044554938e-04
9.700000000000001066e+00 -2.171031801130318684e-04
9.800000000000000711e+00 -1.886462968649915695e-04
9.900000000000000355e+00 -1.639023371673431484e-04
1.000000000000000000e+01 -1.423890587961551546e-04
1.009999999999999964e+01 -1.236869320213607182e-04
1.020000000000000107e+01 -1.074295932488311678e-04
1.030000000000000071e+01 -9.329917342260074520e-05
1.040000000000000036e+01 -8.101858526954330841e-05
1.050000000000000000e+01 -7.034684928308720941e-05
1.059999999999999964e+01 -6.107369667773809851e-05
1.069999999999999929e+01 -5.301673365476489153e-05
1.080000000000000071e+01 -4.601707393581122574e-05
1.090000000000000036e+01 -3.993649679800981289e-05
1.100000000000000000e+01 -3.465487231046893157e-05
1.109999999999999964e+01 -3.006742790567784596e-05
1.119999999999999929e+01 -2.608333660258921327e-05
1.130000000000000071e+01 -2.262351974824383660e-05
1.140000000000000036e+01 -1.961922925364234516e-05
1.150000000000000000e+01 -1.701073128002050794e-05
1.159999999999999964e+01 -1.474597434469870905e-05
1.169999999999999929e+01 -1.277985152547955749e-05
1.180000000000000071e+01 -1.107310544901096705e-05
1.190000000000000036e+01 -9.591627691207804673e-06
1.200000000000000000e+01 -8.305800399899254671e-06
1.209999999999999964e+01 -7.189820184994033525e-06
1.220000000000000107e+01 -6.221337912837299200e-06
1.230000000000000071e+01 -5.380915575781131110e-06
1.240000000000000036e+01 -4.651668502386741011e-06
1.250000000000000000e+01 -4.018943442929412413e-06
1.259999999999999964e+01 -3.469978772319137761e-06
1.270000000000000107e+01 -2.993725435107563726e-06
1.280000000000000071e+01 -2.580579711253250252e-06
1.290000000000000036e+01 -2.222200454760070443e-06
1.300000000000000000e+01 -1.911352276007249884e-06
1.309999999999999964e+01 -1.641737194635339847e-06
1.320000000000000107e+01 -1.407904216765842875e-06
1.330000000000000071e+01 -1.205115710334325740e-06
1.340000000000000036e+01 -1.029260807694498681e-06
1.350000000000000000e+01 -8.767729786640643397e-07
1.359999999999999964e+01 -7.445496508218241161e-07
1.370000000000000107e+01 -6.299065287151961456e-07
1.380000000000000071e+01 -5.305114059162008289e-07
1.390000000000000036e+01 -4.443407206622396188e-07
1.400000000000000000e+01 -3.696402330888304277e-07
1.409999999999999964e+01 -3.048839185559870657e-07
1.420000000000000107e+01 -2.487520873728499282e-07
1.430000000000000071e+01 -2.000984591354892927e-07
1.440000000000000036e+01 -1.579288011477331111e-07
1.450000000000000000e+01 -1.213814666556345401e-07
1.459999999999999964e+01 -8.970711462552571902e-08
1.470000000000000107e+01 -6.225789972447159926e-08
1.480000000000000071e+01 -3.847129415035510647e-08
1.490000000000000036e+01 -1.785990155767080978e-08
1.500000000000000000e+01 0.000000000000000000e+00
