# Scan along dir: [1. 1. 0.]
# t	Energy(eV)
0.000000000000000000e+00 -1.997190017262568951e-01
1.000000000000000056e-01 -1.873308396908304196e-01
2.000000000000000111e-01 -1.712003472824692452e-01
3.000000000000000444e-01 -1.516689775325130718e-01
4.000000000000000222e-01 -1.291352080496110943e-01
5.000000000000000000e-01 -1.040683127160479948e-01
6.000000000000000888e-01 -7.701126159709170693e-02
7.000000000000000666e-01 -4.854088200663264629e-02
8.000000000000000444e-01 -1.926731966622918790e-02
9.000000000000000222e-01 1.023078241365693586e-02
1.000000000000000000e+00 3.936146677723373344e-02
1.100000000000000089e+00 6.762984249675740855e-02
1.200000000000000178e+00 9.459987588389173752e-02
1.300000000000000044e+00 1.198748152376700737e-01
1.400000000000000133e+00 1.430954507853492430e-01
1.500000000000000000e+00 1.639282247688833571e-01
1.600000000000000089e+00 1.820611969292298404e-01
1.700000000000000178e+00 1.971953946499729327e-01
1.800000000000000044e+00 2.090234002061834850e-01
1.900000000000000133e+00 2.171412781548087700e-01
2.000000000000000000e+00 1.220528331477210848e-01
2.100000000000000089e+00 1.269692991209101507e-01
2.200000000000000178e+00 1.320169975322884603e-01
2.300000000000000266e+00 1.370357186367172631e-01
2.400000000000000355e+00 1.418319310196785032e-01
2.500000000000000000e+00 1.462055400182289411e-01
2.600000000000000089e+00 1.499524236172136149e-01
2.700000000000000178e+00 1.528960644050738615e-01
2.800000000000000266e+00 1.548848468683616808e-01
2.900000000000000355e+00 1.558297862731525818e-01
3.000000000000000000e+00 1.556784721848938347e-01
3.100000000000000089e+00 1.544414385374377474e-01
3.200000000000000178e+00 1.521939814170090166e-01
3.300000000000000266e+00 1.490537517763113051e-01
3.400000000000000355e+00 1.451778448733977989e-01
3.500000000000000000e+00 1.407432466329523457e-01
3.600000000000000089e+00 1.359281809373369398e-01
3.700000000000000178e+00 1.308993523205619347e-01
3.800000000000000266e+00 1.257942635023772127e-01
3.900000000000000355e+00 1.207165503628790937e-01
4.000000000000000000e+00 1.157343039392566553e-01
4.100000000000000533e+00 1.108773574018258046e-01
4.200000000000000178e+00 1.061304122454571619e-01
4.299999999999999822e+00 1.014084849258769516e-01
4.400000000000000355e+00 9.635183949280845539e-02
4.500000000000000000e+00 5.327915516063486123e-02
4.600000000000000533e+00 4.319892730689289806e-02
4.700000000000000178e+00 3.413910950310627967e-02
4.800000000000000711e+00 2.613444074476145573e-02
4.900000000000000355e+00 1.920784043438361621e-02
5.000000000000000000e+00 1.336349703242456499e-02
5.100000000000000533e+00 8.594232158203318761e-03
5.200000000000000178e+00 4.887756666609011091e-03
5.300000000000000711e+00 2.225112730820821838e-03
5.400000000000000355e+00 5.989003255284508498e-04
5.500000000000000000e+00 1.126888621483246311e-05
5.600000000000000533e+00 4.570585114294090090e-04
5.700000000000000178e+00 1.952925536724325895e-03
5.800000000000000711e+00 4.506102901097985836e-03
5.900000000000000355e+00 8.143074852852816292e-03
6.000000000000000000e+00 1.286419502278457472e-02
6.100000000000000533e+00 1.867807976118429636e-02
6.200000000000000178e+00 2.559388114054206298e-02
6.300000000000000711e+00 3.355575304701785555e-02
6.400000000000000355e+00 4.251934456831341080e-02
6.500000000000000000e+00 5.239493749396606503e-02
6.600000000000000533e+00 6.307127863809069979e-02
6.700000000000000178e+00 7.441274207344106273e-02
6.800000000000000711e+00 8.626790148132146285e-02
6.900000000000000355e+00 9.842704567929017045e-02
7.000000000000000000e+00 1.103693440202500042e-01
7.100000000000000533e+00 1.212644629795089912e-01
7.200000000000000178e+00 1.021422367421229715e-01
7.300000000000000711e+00 1.057592390939814386e-01
7.400000000000000355e+00 1.098167472390478849e-01
7.500000000000000000e+00 1.140043478405465827e-01
7.600000000000000533e+00 1.185002992356829488e-01
7.700000000000000178e+00 1.232962713769083507e-01
7.800000000000000711e+00 1.282964645745150456e-01
7.900000000000000355e+00 1.333637956145516945e-01
8.000000000000000000e+00 1.383195224531905687e-01
8.099999999999999645e+00 1.429703895350971088e-01
8.200000000000001066e+00 1.471080514759410818e-01
8.300000000000000711e+00 1.505421632501962037e-01
8.400000000000000355e+00 1.531045675496369718e-01
8.500000000000000000e+00 1.546682317554437525e-01
8.599999999999999645e+00 1.551632362781987240e-01
8.700000000000001066e+00 1.545568120359743780e-01
8.800000000000000711e+00 1.528922407255950411e-01
8.900000000000000355e+00 1.502629989205979122e-01
9.000000000000000000e+00 1.468027880840900856e-01
9.099999999999999645e+00 1.426809827570139078e-01
9.200000000000001066e+00 1.380766233972652302e-01
9.300000000000000711e+00 1.331646721040224968e-01
9.400000000000000355e+00 1.281008283281441784e-01
9.500000000000000000e+00 1.230103268986777465e-01
9.600000000000001421e+00 1.179819938021977599e-01
9.700000000000001066e+00 1.130683619368735293e-01
9.800000000000000711e+00 1.082835169644473794e-01
9.900000000000000355e+00 1.035929718712260694e-01
1.000000000000000000e+01 9.886048762251808952e-02
1.010000000000000142e+01 5.971763869654234114e-02
1.020000000000000107e+01 4.908733593969616393e-02
1.030000000000000071e+01 3.943463742373243264e-02
1.040000000000000036e+01 3.081235906983126327e-02
1.050000000000000000e+01 2.325755823946007439e-02
1.060000000000000142e+01 1.678708483420043862e-02
1.070000000000000107e+01 1.139715026325793801e-02
1.080000000000000071e+01 7.079103897987604199e-03
1.090000000000000036e+01 3.815939926800737680e-03
1.100000000000000000e+01 1.587566085663461024e-03
1.110000000000000142e+01 4.006995837673166250e-04
1.120000000000000107e+01 2.496915728569248927e-04
1.130000000000000071e+01 1.138621872364797838e-03
1.140000000000000036e+01 3.076925177867728678e-03
1.150000000000000000e+01 6.085272362113869349e-03
1.160000000000000142e+01 1.017950412585033604e-02
1.170000000000000107e+01 1.536350328663660392e-02
1.180000000000000071e+01 2.163568769775592315e-02
1.190000000000000036e+01 2.899823051252825579e-02
1.200000000000000000e+01 3.738904543121268631e-02
1.210000000000000142e+01 4.674380750725459777e-02
1.220000000000000107e+01 5.696298934930910107e-02
1.230000000000000071e+01 6.792197869184102288e-02
1.240000000000000036e+01 7.948067344569809123e-02
1.250000000000000000e+01 9.146578050851994490e-02
1.260000000000000142e+01 1.035922355241667425e-01
1.270000000000000107e+01 1.151109613648153562e-01
1.280000000000000071e+01 9.889794425386888577e-02
1.290000000000000036e+01 1.026572393102647140e-01
1.300000000000000000e+01 1.066908410252462858e-01
1.310000000000000142e+01 1.107036146480515626e-01
1.320000000000000107e+01 1.150209184851376243e-01
1.330000000000000071e+01 1.196614887090787782e-01
1.340000000000000036e+01 1.245668811104114759e-01
1.350000000000000000e+01 1.296203228654935202e-01
1.360000000000000142e+01 1.346686498958118428e-01
1.370000000000000107e+01 1.395226127788680159e-01
1.380000000000000071e+01 1.439837049724967954e-01
1.390000000000000036e+01 1.478496094000556482e-01
1.400000000000000000e+01 1.509373258757200631e-01
1.410000000000000142e+01 1.530922086451114161e-01
1.420000000000000107e+01 1.542156396075986535e-01
1.430000000000000071e+01 1.542506513612758035e-01
1.440000000000000036e+01 1.531951792561074832e-01
1.450000000000000000e+01 1.511167256144525517e-01
1.460000000000000142e+01 1.481260387152509850e-01
1.470000000000000107e+01 1.443731665278500387e-01
1.480000000000000071e+01 1.400337191276848081e-01
1.490000000000000036e+01 1.352870635286658185e-01
1.500000000000000000e+01 1.303023386742445666e-01
1.510000000000000142e+01 1.252227578863740476e-01
1.520000000000000107e+01 1.201594389326094969e-01
1.530000000000000071e+01 1.151862191934451829e-01
1.540000000000000036e+01 1.103413639451056305e-01
1.550000000000000000e+01 1.056222897524974336e-01
1.560000000000000142e+01 1.009691114924682331e-01
1.570000000000000107e+01 9.615620493588794560e-02
1.580000000000000071e+01 5.521944463039218931e-02
1.590000000000000036e+01 4.496038045239769687e-02
1.600000000000000000e+01 3.571662465727687419e-02
1.610000000000000142e+01 2.752729728728198211e-02
1.619999999999999929e+01 2.041652074094590930e-02
1.630000000000000071e+01 1.439007094503619300e-02
1.640000000000000213e+01 9.443692889921528888e-03
1.650000000000000000e+01 5.563860711187640362e-03
1.660000000000000142e+01 2.730846091772765050e-03
1.669999999999999929e+01 9.351477986982992263e-04
1.680000000000000071e+01 1.796523930952531600e-04
1.690000000000000213e+01 4.559987943335563898e-04
1.700000000000000000e+01 1.783332826831074414e-03
1.710000000000000142e+01 4.164769069214369068e-03
1.719999999999999929e+01 7.625194350252328945e-03
1.730000000000000071e+01 1.217209586142553590e-02
1.740000000000000213e+01 1.780906078444566276e-02
1.750000000000000000e+01 2.454770806720585341e-02
1.760000000000000142e+01 3.233581343725466795e-02
1.769999999999999929e+01 4.112908140379634148e-02
1.780000000000000071e+01 5.084519610068038986e-02
1.790000000000000213e+01 6.137267437090754285e-02
1.800000000000000000e+01 7.257808692062450717e-02
1.810000000000000142e+01 8.431183964683031107e-02
1.819999999999999929e+01 9.636770940412198172e-02
1.830000000000000071e+01 1.082476236603588937e-01
1.840000000000000213e+01 1.191365837696802821e-01
1.850000000000000000e+01 9.940854501856266623e-02
1.860000000000000142e+01 1.030922563802030290e-01
1.869999999999999929e+01 1.071741662991176902e-01
1.880000000000000071e+01 1.113121391987768050e-01
1.890000000000000213e+01 1.157682938844799558e-01
1.900000000000000000e+01 1.205289986679125569e-01
1.910000000000000142e+01 1.255071196211665630e-01
1.920000000000000284e+01 1.305717473863405864e-01
1.930000000000000071e+01 1.355522181723585184e-01
1.940000000000000213e+01 1.402547375323055512e-01
1.950000000000000000e+01 1.444783200271477774e-01
1.960000000000000142e+01 1.480262789168746984e-01
1.970000000000000284e+01 1.507272849619871735e-01
1.980000000000000071e+01 1.524461594871899806e-01
1.990000000000000213e+01 1.531082460154675751e-01
2.000000000000000000e+01 1.526716308576578918e-01
2.010000000000000142e+01 1.511681513393425824e-01
2.020000000000000284e+01 1.486835606200345161e-01
2.030000000000000071e+01 1.453452689997933867e-01
2.040000000000000213e+01 1.413172383948837485e-01
2.050000000000000000e+01 1.367781496590745327e-01
2.060000000000000142e+01 1.319043971590523334e-01
2.070000000000000284e+01 1.268564513312910869e-01
2.080000000000000071e+01 1.217641797624611222e-01
2.090000000000000213e+01 1.167238072339937816e-01
2.100000000000000000e+01 1.117945324859732636e-01
2.110000000000000142e+01 1.069997874432861984e-01
2.120000000000000284e+01 1.023195034024375616e-01
2.130000000000000071e+01 9.765848663092535631e-02
2.140000000000000213e+01 9.257725750855660962e-02
2.150000000000000000e+01 5.010341465175383036e-02
2.160000000000000142e+01 4.021441093312594361e-02
2.170000000000000284e+01 3.136638751846865247e-02
2.180000000000000071e+01 2.359412254960924216e-02
2.190000000000000213e+01 1.690865710912525799e-02
2.200000000000000000e+01 1.130564760677588154e-02
2.210000000000000142e+01 6.776761985578527714e-03
2.220000000000000284e+01 3.303729392243770491e-03
2.230000000000000071e+01 8.778979085430904661e-04
2.240000000000000213e+01 -5.084744406471664036e-04
2.250000000000000000e+01 -8.602964307917737585e-04
2.260000000000000142e+01 -1.739156644253725403e-04
2.270000000000000284e+01 1.560217217412063206e-03
2.280000000000000071e+01 4.358956569471494902e-03
2.290000000000000213e+01 8.240699007549867616e-03
2.300000000000000000e+01 1.320892395627959459e-02
2.310000000000000142e+01 1.926200766325703029e-02
2.320000000000000284e+01 2.640663274039400932e-02
2.330000000000000071e+01 3.457926062087635088e-02
2.340000000000000213e+01 4.372429320811299647e-02
2.350000000000000000e+01 5.374203231499263822e-02
2.360000000000000142e+01 6.451017867885378010e-02
2.370000000000000284e+01 7.589084309999405420e-02
2.380000000000000071e+01 8.771332284891508735e-02
2.390000000000000213e+01 9.971396915524044502e-02
2.400000000000000000e+01 1.111478441703002140e-01
2.410000000000000142e+01 9.428793009676805781e-02
2.420000000000000284e+01 9.812931655031453815e-02
2.430000000000000071e+01 1.021481169138476197e-01
2.440000000000000213e+01 1.060957077358923861e-01
2.450000000000000000e+01 1.103286682112138983e-01
2.460000000000000142e+01 1.148812151228972844e-01
2.470000000000000284e+01 1.197087174808704191e-01
2.480000000000000071e+01 1.247021111739226029e-01
2.490000000000000213e+01 1.297176436103320007e-01
2.500000000000000000e+01 1.345681839054782003e-01
2.510000000000000142e+01 1.390617208951776540e-01
2.520000000000000284e+01 1.429926961119387663e-01
2.530000000000000071e+01 1.461797350772013893e-01
2.540000000000000213e+01 1.484606988088059687e-01
2.550000000000000000e+01 1.497287207565727307e-01
2.560000000000000142e+01 1.499210653203104648e-01
2.570000000000000284e+01 1.490218922526169720e-01
2.580000000000000071e+01 1.470886396664474738e-01
2.590000000000000213e+01 1.442229737657791944e-01
2.600000000000000000e+01 1.405671512230259879e-01
2.610000000000000142e+01 1.362930229748364752e-01
2.620000000000000284e+01 1.315793732402066318e-01
2.630000000000000071e+01 1.265966350312495159e-01
2.640000000000000213e+01 1.214928844393878826e-01
2.650000000000000000e+01 1.163839694627055721e-01
2.660000000000000142e+01 1.113502764383840216e-01
2.670000000000000284e+01 1.064346015523791600e-01
2.680000000000000071e+01 1.016417335580150905e-01
2.690000000000000213e+01 9.692276385691656060e-02
2.700000000000000000e+01 9.209151181451202817e-02
2.710000000000000142e+01 5.142609759071170572e-02
2.720000000000000284e+01 4.092316599976753011e-02
2.730000000000000071e+01 3.144012890396430393e-02
2.740000000000000213e+01 2.302226681892127758e-02
2.750000000000000000e+01 1.569880528670752895e-02
2.760000000000000142e+01 9.479113128710636715e-03
2.770000000000000284e+01 4.353953901873541810e-03
2.780000000000000071e+01 3.155236823517704181e-04
2.790000000000000213e+01 -2.657940830417260258e-03
2.800000000000000000e+01 -4.573135371443548536e-03
2.810000000000000142e+01 -5.432279589665967023e-03
2.820000000000000284e+01 -5.231633934229318328e-03
2.830000000000000071e+01 -3.975290536331499425e-03
2.840000000000000213e+01 -1.640557606136905378e-03
2.850000000000000000e+01 1.792241488066892430e-03
2.860000000000000142e+01 6.333248196812135689e-03
2.870000000000000284e+01 1.199576559275650212e-02
2.880000000000000071e+01 1.877338651522952873e-02
2.890000000000000213e+01 2.665167791396028107e-02
2.900000000000000000e+01 3.560774545088429832e-02
2.910000000000000142e+01 4.554706753925907847e-02
2.920000000000000284e+01 5.637800206483278842e-02
2.930000000000000071e+01 6.798079590814642970e-02
2.940000000000000213e+01 8.021371510086838796e-02
2.950000000000000000e+01 9.292592581726522027e-02
2.960000000000000142e+01 1.057477188395892220e-01
2.970000000000000284e+01 1.179007448083542187e-01
2.980000000000000071e+01 1.016515898975463017e-01
2.990000000000000213e+01 1.062708205070732603e-01
3.000000000000000000e+01 1.113644856882785028e-01
3.010000000000000142e+01 1.166151889038022915e-01
3.020000000000000284e+01 1.223099763390744776e-01
3.030000000000000071e+01 1.284637159227268732e-01
3.040000000000000213e+01 1.350141697998203938e-01
3.050000000000000000e+01 1.418622674411285089e-01
3.060000000000000142e+01 1.488527101353693816e-01
3.070000000000000284e+01 1.558217836155679770e-01
3.080000000000000071e+01 1.625910600802074057e-01
3.090000000000000213e+01 1.689805475042605032e-01
3.100000000000000000e+01 1.748312954692226029e-01
3.110000000000000142e+01 1.800015685971700918e-01
3.120000000000000284e+01 1.844046457030348307e-01
3.130000000000000071e+01 1.879778470014694669e-01
3.140000000000000213e+01 1.907132814689660449e-01
3.150000000000000000e+01 1.926535616594229339e-01
3.160000000000000142e+01 1.938764819227567493e-01
3.170000000000000284e+01 1.944917386072417820e-01
3.180000000000000071e+01 1.946261429571349844e-01
3.190000000000000213e+01 1.944034615607486138e-01
3.200000000000000000e+01 1.939292125088507568e-01
3.210000000000000142e+01 1.932756631599517050e-01
3.220000000000000284e+01 1.924717747547126656e-01
3.230000000000000426e+01 1.915007680297682313e-01
3.239999999999999858e+01 1.902932825260150729e-01
3.250000000000000000e+01 1.887160310708626554e-01
3.260000000000000142e+01 1.865252402644430596e-01
3.270000000000000284e+01 1.829760366845953889e-01
3.280000000000000426e+01 1.293301919200233741e-01
3.289999999999999858e+01 1.176665665985070497e-01
3.300000000000000000e+01 1.063945902503555807e-01
3.310000000000000142e+01 9.559191349855078457e-02
3.320000000000000284e+01 8.532845750665396523e-02
3.330000000000000426e+01 7.564377601321314870e-02
3.339999999999999858e+01 6.657503403276265885e-02
3.350000000000000000e+01 5.821232913487728311e-02
3.360000000000000142e+01 5.063582813420230977e-02
3.370000000000000284e+01 4.389066117832918223e-02
3.380000000000000426e+01 3.799812817026326783e-02
3.389999999999999858e+01 3.296026653679229312e-02
3.400000000000000000e+01 2.870170325135790179e-02
3.410000000000000142e+01 2.501503104341074035e-02
3.420000000000000284e+01 2.140264190663199173e-02
3.430000000000000426e+01 1.658352752840341893e-02
3.439999999999999858e+01 6.090391120970206629e-03
3.450000000000000000e+01 -1.938698019115303595e-02
3.460000000000000142e+01 -3.946936346259422024e-02
3.470000000000000284e+01 -5.887439934536020658e-02
3.480000000000000426e+01 -7.721857566606038503e-02
3.489999999999999858e+01 -9.412680277108886884e-02
3.500000000000000000e+01 -1.092538003253955559e-01
3.510000000000000142e+01 -1.223211231273992894e-01
3.520000000000000284e+01 -1.330877908568859347e-01
3.530000000000000426e+01 -1.414487424385160175e-01
3.539999999999999858e+01 -1.473757122087340221e-01
3.550000000000000000e+01 -1.509121389750855968e-01
3.560000000000000142e+01 -1.521967171250793172e-01
3.570000000000000284e+01 -1.514995174832876046e-01
3.580000000000000426e+01 -1.491852342531676534e-01
3.589999999999999858e+01 -1.456809659269553414e-01
3.600000000000000000e+01 -1.414596836396126989e-01
3.610000000000000142e+01 -1.370635251626790563e-01
3.620000000000000284e+01 -1.331997743598209993e-01
3.630000000000000426e+01 -1.310407709256451447e-01
3.639999999999999858e+01 -1.318187185579824394e-01
3.650000000000000000e+01 -1.326089941846038123e-01
3.660000000000000142e+01 -1.329745640214290425e-01
3.670000000000000284e+01 -1.330900551586773339e-01
3.680000000000000426e+01 -1.330050955138784019e-01
3.689999999999999858e+01 -1.326900085290283471e-01
3.700000000000000000e+01 -1.320817154695963502e-01
3.710000000000000142e+01 -1.310898798209167992e-01
3.720000000000000284e+01 -1.296907152063151436e-01
3.730000000000000426e+01 -1.278814952806306415e-01
3.739999999999999858e+01 -1.257045507613412383e-01
3.750000000000000000e+01 -1.231919017014511120e-01
3.760000000000000142e+01 -1.203905697902780680e-01
3.770000000000000284e+01 -1.173564760284682151e-01
3.780000000000000426e+01 -1.142585390728667605e-01
3.789999999999999858e+01 -1.116420599887093523e-01
3.800000000000000000e+01 -2.524226842837391516e-01
3.810000000000000142e+01 -2.758780906681885803e-01
3.820000000000000284e+01 -3.000378656673805544e-01
3.830000000000000426e+01 -3.245360454264498706e-01
3.840000000000000568e+01 -3.488819387538346639e-01
3.850000000000000000e+01 -3.724889356925777939e-01
3.860000000000000142e+01 -3.946860122592221742e-01
3.870000000000000284e+01 -4.147656958106344938e-01
3.880000000000000426e+01 -4.320380667039165345e-01
3.890000000000000568e+01 -4.458805543207806643e-01
3.900000000000000000e+01 -4.557419408022611584e-01
3.910000000000000142e+01 -4.611966710319479468e-01
3.920000000000000284e+01 -4.619345132403025467e-01
3.930000000000000426e+01 -4.577946372432117883e-01
3.940000000000000568e+01 -4.487630408657281578e-01
3.950000000000000000e+01 -4.349640197734538916e-01
3.960000000000000142e+01 -4.166149102762353174e-01
