# Scan along dir: [1. 1. 0.]
# t	Energy(eV)
0.000000000000000000e+00 2.769966129417062106e+00
1.000000000000000056e-01 2.782354291452488582e+00
2.000000000000000111e-01 2.798484783860849756e+00
3.000000000000000444e-01 2.818016153610805929e+00
4.000000000000000222e-01 2.840549923093707907e+00
5.000000000000000000e-01 2.865616818427271006e+00
6.000000000000000888e-01 2.892673869546227294e+00
7.000000000000000666e-01 2.921144249136686355e+00
8.000000000000000444e-01 2.950417811477089813e+00
9.000000000000000222e-01 2.979915913556975937e+00
1.000000000000000000e+00 3.009046597920552735e+00
1.100000000000000089e+00 3.037314973640076410e+00
1.200000000000000178e+00 3.064285007027210739e+00
1.300000000000000044e+00 3.089559946380989075e+00
1.400000000000000133e+00 3.112780581928668244e+00
1.500000000000000000e+00 3.133613355912202358e+00
1.600000000000000089e+00 3.151746328072548842e+00
1.700000000000000178e+00 3.166880525793291934e+00
1.800000000000000044e+00 3.178708531349502486e+00
1.900000000000000133e+00 3.186826409298127771e+00
2.000000000000000000e+00 3.091737964291040086e+00
2.100000000000000089e+00 3.096654430264229152e+00
2.200000000000000178e+00 3.101702128675607462e+00
2.300000000000000266e+00 3.106720849780036264e+00
2.400000000000000355e+00 3.111517062162997505e+00
2.500000000000000000e+00 3.115890671161547942e+00
2.600000000000000089e+00 3.119637554760532616e+00
2.700000000000000178e+00 3.122581195548392863e+00
2.800000000000000266e+00 3.124569978011680682e+00
2.900000000000000355e+00 3.125514917416471583e+00
3.000000000000000000e+00 3.125363603328212836e+00
3.100000000000000089e+00 3.124126569680756749e+00
3.200000000000000178e+00 3.121879112560328018e+00
3.300000000000000266e+00 3.118738882919630306e+00
3.400000000000000355e+00 3.114862976016716800e+00
3.500000000000000000e+00 3.110428377776271347e+00
3.600000000000000089e+00 3.105613312080655941e+00
3.700000000000000178e+00 3.100584483463880936e+00
3.800000000000000266e+00 3.095479394645696214e+00
3.900000000000000355e+00 3.090401681506198095e+00
4.000000000000000000e+00 3.085419435082575657e+00
4.100000000000000533e+00 3.080562488545144806e+00
4.200000000000000178e+00 3.075815543388776163e+00
4.299999999999999822e+00 3.071093616069195953e+00
4.400000000000000355e+00 3.066036970636127457e+00
4.500000000000000000e+00 3.022964286303953863e+00
4.600000000000000533e+00 3.012884058450211899e+00
4.700000000000000178e+00 3.003824240646425281e+00
4.800000000000000711e+00 2.995819571888080457e+00
4.900000000000000355e+00 2.988892971577702617e+00
5.000000000000000000e+00 2.983048628175743566e+00
5.100000000000000533e+00 2.978279363301522320e+00
5.200000000000000178e+00 2.974572887809928012e+00
5.300000000000000711e+00 2.971910243874139823e+00
5.400000000000000355e+00 2.970284031468847452e+00
5.500000000000000000e+00 2.969696400029533834e+00
5.600000000000000533e+00 2.970142189654748410e+00
5.700000000000000178e+00 2.971638056680043327e+00
5.800000000000000711e+00 2.974191234044416987e+00
5.900000000000000355e+00 2.977828205996171818e+00
6.000000000000000000e+00 2.982549326166103576e+00
6.100000000000000533e+00 2.988363210904503298e+00
6.200000000000000178e+00 2.995279012283861064e+00
6.300000000000000711e+00 3.003240884190336857e+00
6.400000000000000355e+00 3.012204475711632412e+00
6.500000000000000000e+00 3.022080068637285066e+00
6.600000000000000533e+00 3.032756409781409701e+00
6.700000000000000178e+00 3.044097873216760064e+00
6.800000000000000711e+00 3.055953032624640464e+00
6.900000000000000355e+00 3.068112176822609172e+00
7.000000000000000000e+00 3.080054475163569006e+00
7.100000000000000533e+00 3.090949594122827992e+00
7.200000000000000178e+00 3.071827367885441973e+00
7.300000000000000711e+00 3.075444370237300440e+00
7.400000000000000355e+00 3.079501878382366886e+00
7.500000000000000000e+00 3.083689478983865584e+00
7.600000000000000533e+00 3.088185430379001950e+00
7.700000000000000178e+00 3.092981402520227352e+00
7.800000000000000711e+00 3.097981595717834047e+00
7.900000000000000355e+00 3.103048926757870696e+00
8.000000000000000000e+00 3.108004653596509570e+00
8.099999999999999645e+00 3.112655520678416110e+00
8.200000000000001066e+00 3.116793182619260083e+00
8.300000000000000711e+00 3.120227294393515205e+00
8.400000000000000355e+00 3.122789698692955973e+00
8.500000000000000000e+00 3.124353362898762754e+00
8.599999999999999645e+00 3.124848367421517725e+00
8.700000000000001066e+00 3.124241943179293379e+00
8.800000000000000711e+00 3.122577371868914042e+00
8.900000000000000355e+00 3.119948130063916913e+00
9.000000000000000000e+00 3.116487919227409087e+00
9.099999999999999645e+00 3.112366113900332909e+00
9.200000000000001066e+00 3.107761754540584231e+00
9.300000000000000711e+00 3.102849803247341498e+00
9.400000000000000355e+00 3.097785959471463180e+00
9.500000000000000000e+00 3.092695458041996748e+00
9.600000000000001421e+00 3.087667124945516761e+00
9.700000000000001066e+00 3.082753493080192531e+00
9.800000000000000711e+00 3.077968648107766381e+00
9.900000000000000355e+00 3.073278103014545071e+00
1.000000000000000000e+01 3.068545618765837091e+00
1.010000000000000142e+01 3.029402769839861342e+00
1.020000000000000107e+01 3.018772467083015165e+00
1.030000000000000071e+01 3.009119768567051434e+00
1.040000000000000036e+01 3.000497490213150265e+00
1.050000000000000000e+01 2.992942689382779076e+00
1.060000000000000142e+01 2.986472215977519440e+00
1.070000000000000107e+01 2.981082281406576939e+00
1.080000000000000071e+01 2.976764235041306605e+00
1.090000000000000036e+01 2.973501071070119739e+00
1.100000000000000000e+01 2.971272697228982462e+00
1.110000000000000142e+01 2.970085830727086318e+00
1.120000000000000107e+01 2.969934822716175926e+00
1.130000000000000071e+01 2.970823753015683799e+00
1.140000000000000036e+01 2.972762056321186730e+00
1.150000000000000000e+01 2.975770403505432871e+00
1.160000000000000142e+01 2.979864635269169337e+00
1.170000000000000107e+01 2.985048634429955605e+00
1.180000000000000071e+01 2.991320818841074924e+00
1.190000000000000036e+01 2.998683361655847257e+00
1.200000000000000000e+01 3.007074176574531688e+00
1.210000000000000142e+01 3.016428938650573599e+00
1.220000000000000107e+01 3.026648120492628102e+00
1.230000000000000071e+01 3.037607109835160024e+00
1.240000000000000036e+01 3.049165804589017092e+00
1.250000000000000000e+01 3.061150911651838946e+00
1.260000000000000142e+01 3.073277366667485744e+00
1.270000000000000107e+01 3.084796092508134358e+00
1.280000000000000071e+01 3.068583075397187887e+00
1.290000000000000036e+01 3.072342370453583715e+00
1.300000000000000000e+01 3.076375972168565287e+00
1.310000000000000142e+01 3.080388745791370564e+00
1.320000000000000107e+01 3.084706049628456626e+00
1.330000000000000071e+01 3.089346619852397779e+00
1.340000000000000036e+01 3.094252012253730477e+00
1.350000000000000000e+01 3.099305454008812521e+00
1.360000000000000142e+01 3.104353781039130844e+00
1.370000000000000107e+01 3.109207743922187017e+00
1.380000000000000071e+01 3.113668836115815797e+00
1.390000000000000036e+01 3.117534740543374649e+00
1.400000000000000000e+01 3.120622457019039064e+00
1.410000000000000142e+01 3.122777339788430417e+00
1.420000000000000107e+01 3.123900770750917655e+00
1.430000000000000071e+01 3.123935782504594805e+00
1.440000000000000036e+01 3.122880310399426484e+00
1.450000000000000000e+01 3.120801856757771553e+00
1.460000000000000142e+01 3.117811169858569986e+00
1.470000000000000107e+01 3.114058297671169040e+00
1.480000000000000071e+01 3.109718850271003809e+00
1.490000000000000036e+01 3.104972194671984820e+00
1.500000000000000000e+01 3.099987469817563568e+00
1.510000000000000142e+01 3.094907889029693049e+00
1.520000000000000107e+01 3.089844570075928498e+00
1.530000000000000071e+01 3.084871350336764184e+00
1.540000000000000036e+01 3.080026495088424632e+00
1.550000000000000000e+01 3.075307420895816435e+00
1.560000000000000142e+01 3.070654242635787234e+00
1.570000000000000107e+01 3.065841336079206947e+00
1.580000000000000071e+01 3.024904575773711191e+00
1.590000000000000036e+01 3.014645511595716698e+00
1.600000000000000000e+01 3.005401755800595875e+00
1.610000000000000142e+01 2.997212428430600983e+00
1.619999999999999929e+01 2.990101651884264911e+00
1.630000000000000071e+01 2.984075202088355194e+00
1.640000000000000213e+01 2.979128824033240530e+00
1.650000000000000000e+01 2.975248991854506642e+00
1.660000000000000142e+01 2.972415977235091766e+00
1.669999999999999929e+01 2.970620278942017300e+00
1.680000000000000071e+01 2.969864783536414254e+00
1.690000000000000213e+01 2.970141129937652558e+00
1.700000000000000000e+01 2.971468463970150076e+00
1.710000000000000142e+01 2.973849900212533370e+00
1.719999999999999929e+01 2.977310325493571330e+00
1.730000000000000071e+01 2.981857227004744537e+00
1.740000000000000213e+01 2.987494191927764664e+00
1.750000000000000000e+01 2.994232839210524855e+00
1.760000000000000142e+01 3.002020944580573669e+00
1.769999999999999929e+01 3.010814212547115343e+00
1.780000000000000071e+01 3.020530327243999391e+00
1.790000000000000213e+01 3.031057805514226544e+00
1.800000000000000000e+01 3.042263218063943508e+00
1.810000000000000142e+01 3.053996970790149312e+00
1.819999999999999929e+01 3.066052840547440983e+00
1.830000000000000071e+01 3.077932754803677895e+00
1.840000000000000213e+01 3.088821714912999283e+00
1.850000000000000000e+01 3.069093676161881667e+00
1.860000000000000142e+01 3.072777387523522030e+00
1.869999999999999929e+01 3.076859297442436691e+00
1.880000000000000071e+01 3.080997270342095806e+00
1.890000000000000213e+01 3.085453425027798957e+00
1.900000000000000000e+01 3.090214129811231558e+00
1.910000000000000142e+01 3.095192250764485564e+00
1.920000000000000284e+01 3.100256878529659588e+00
1.930000000000000071e+01 3.105237349315677520e+00
1.940000000000000213e+01 3.109939868675624552e+00
1.950000000000000000e+01 3.114163451170466779e+00
1.960000000000000142e+01 3.117711410060193700e+00
1.970000000000000284e+01 3.120412416105306175e+00
1.980000000000000071e+01 3.122131290630508982e+00
1.990000000000000213e+01 3.122793377158786576e+00
2.000000000000000000e+01 3.122356762000976893e+00
2.010000000000000142e+01 3.120853282482661584e+00
2.020000000000000284e+01 3.118368691763353517e+00
2.030000000000000071e+01 3.115030400143112388e+00
2.040000000000000213e+01 3.111002369538202750e+00
2.050000000000000000e+01 3.106463280802393534e+00
2.060000000000000142e+01 3.101589528302371335e+00
2.070000000000000284e+01 3.096541582474610088e+00
2.080000000000000071e+01 3.091449310905780123e+00
2.090000000000000213e+01 3.086408938377312783e+00
2.100000000000000000e+01 3.081479663629292265e+00
2.110000000000000142e+01 3.076684918586605200e+00
2.120000000000000284e+01 3.072004634545756563e+00
2.130000000000000071e+01 3.067343617774244358e+00
2.140000000000000213e+01 3.062262388651875611e+00
2.150000000000000000e+01 3.019788545795072832e+00
2.160000000000000142e+01 3.009899542076444945e+00
2.170000000000000284e+01 3.001051518661787654e+00
2.180000000000000071e+01 2.993279253692928243e+00
2.190000000000000213e+01 2.986593788252444259e+00
2.200000000000000000e+01 2.980990778750094883e+00
2.210000000000000142e+01 2.976461893128897529e+00
2.220000000000000284e+01 2.972988860535562772e+00
2.230000000000000071e+01 2.970563029051862092e+00
2.240000000000000213e+01 2.969176656702671835e+00
2.250000000000000000e+01 2.968824834712527228e+00
2.260000000000000142e+01 2.969511215478893629e+00
2.270000000000000284e+01 2.971245348360731064e+00
2.280000000000000071e+01 2.974044087712790496e+00
2.290000000000000213e+01 2.977925830150868869e+00
2.300000000000000000e+01 2.982894055099598596e+00
2.310000000000000142e+01 2.988947138806576032e+00
2.320000000000000284e+01 2.996091763883713011e+00
2.330000000000000071e+01 3.004264391764195352e+00
2.340000000000000213e+01 3.013409424351431998e+00
2.350000000000000000e+01 3.023427163458311639e+00
2.360000000000000142e+01 3.034195309822172781e+00
2.370000000000000284e+01 3.045575974243313055e+00
2.380000000000000071e+01 3.057398453992234089e+00
2.390000000000000213e+01 3.069399100298559446e+00
2.400000000000000000e+01 3.080832975313619215e+00
2.410000000000000142e+01 3.063973061240087059e+00
2.420000000000000284e+01 3.067814447693633539e+00
2.430000000000000071e+01 3.071833248057166621e+00
2.440000000000000213e+01 3.075780838879211387e+00
2.450000000000000000e+01 3.080013799354532900e+00
2.460000000000000142e+01 3.084566346266216286e+00
2.470000000000000284e+01 3.089393848624189420e+00
2.480000000000000071e+01 3.094387242317241604e+00
2.490000000000000213e+01 3.099402774753651002e+00
2.500000000000000000e+01 3.104253315048797202e+00
2.510000000000000142e+01 3.108746852038496655e+00
2.520000000000000284e+01 3.112677827255257768e+00
2.530000000000000071e+01 3.115864866220520391e+00
2.540000000000000213e+01 3.118145829952124970e+00
2.550000000000000000e+01 3.119413851899891732e+00
2.560000000000000142e+01 3.119606196463629466e+00
2.570000000000000284e+01 3.118707023395935973e+00
2.580000000000000071e+01 3.116773770809766475e+00
2.590000000000000213e+01 3.113908104909098196e+00
2.600000000000000000e+01 3.110252282366344989e+00
2.610000000000000142e+01 3.105978154118155476e+00
2.620000000000000284e+01 3.101264504383525633e+00
2.630000000000000071e+01 3.096281766174568517e+00
2.640000000000000213e+01 3.091178015582706884e+00
2.650000000000000000e+01 3.086069100606024573e+00
2.660000000000000142e+01 3.081035407581703023e+00
2.670000000000000284e+01 3.076119732695698161e+00
2.680000000000000071e+01 3.071326864701334092e+00
2.690000000000000213e+01 3.066607895000235562e+00
2.700000000000000000e+01 3.061776642957831029e+00
2.710000000000000142e+01 3.021111228734030707e+00
2.720000000000000284e+01 3.010608297143086531e+00
2.730000000000000071e+01 3.001125260047283305e+00
2.740000000000000213e+01 2.992707397962240279e+00
2.750000000000000000e+01 2.985383936430026530e+00
2.760000000000000142e+01 2.979164244272029638e+00
2.770000000000000284e+01 2.974039085045192543e+00
2.780000000000000071e+01 2.970000654825670772e+00
2.790000000000000213e+01 2.967027190312901741e+00
2.800000000000000000e+01 2.965111995771875453e+00
2.810000000000000142e+01 2.964252851553653034e+00
2.820000000000000284e+01 2.964453497209089683e+00
2.830000000000000071e+01 2.965709840606987502e+00
2.840000000000000213e+01 2.968044573537182096e+00
2.850000000000000000e+01 2.971477372631385894e+00
2.860000000000000142e+01 2.976018379340131137e+00
2.870000000000000284e+01 2.981680896736075503e+00
2.880000000000000071e+01 2.988458517658548530e+00
2.890000000000000213e+01 2.996336809057279282e+00
2.900000000000000000e+01 3.005292876594203300e+00
2.910000000000000142e+01 3.015232198682578080e+00
2.920000000000000284e+01 3.026063133208151790e+00
2.930000000000000071e+01 3.037665927051465431e+00
2.940000000000000213e+01 3.049898846244187389e+00
2.950000000000000000e+01 3.062611056960584222e+00
2.960000000000000142e+01 3.075432849982908223e+00
2.970000000000000284e+01 3.087585875951673220e+00
2.980000000000000071e+01 3.071336721040865303e+00
2.990000000000000213e+01 3.075955951650392262e+00
3.000000000000000000e+01 3.081049616831597504e+00
3.010000000000000142e+01 3.086300320047121293e+00
3.020000000000000284e+01 3.091995107482393479e+00
3.030000000000000071e+01 3.098148847066045874e+00
3.040000000000000213e+01 3.104699300943139395e+00
3.050000000000000000e+01 3.111547398584447510e+00
3.060000000000000142e+01 3.118537841278688383e+00
3.070000000000000284e+01 3.125506914758886978e+00
3.080000000000000071e+01 3.132276191223526407e+00
3.090000000000000213e+01 3.138665678647579504e+00
3.100000000000000000e+01 3.144516426612541604e+00
3.110000000000000142e+01 3.149686699740489093e+00
3.120000000000000284e+01 3.154089776846353832e+00
3.130000000000000071e+01 3.157662978144788468e+00
3.140000000000000213e+01 3.160398412612285046e+00
3.150000000000000000e+01 3.162338692802741935e+00
3.160000000000000142e+01 3.163561613066075751e+00
3.170000000000000284e+01 3.164176869750560783e+00
3.180000000000000071e+01 3.164311274100453986e+00
3.190000000000000213e+01 3.164088592704067615e+00
3.200000000000000000e+01 3.163614343652169758e+00
3.210000000000000142e+01 3.162960794303270706e+00
3.220000000000000284e+01 3.162156905898031667e+00
3.230000000000000426e+01 3.161185899173087233e+00
3.239999999999999858e+01 3.159978413669334074e+00
3.250000000000000000e+01 3.158401162214181657e+00
3.260000000000000142e+01 3.156210371407762061e+00
3.270000000000000284e+01 3.152661167827914390e+00
3.280000000000000426e+01 3.099015323063342375e+00
3.289999999999999858e+01 3.087351697741826051e+00
3.300000000000000000e+01 3.076079721393674582e+00
3.310000000000000142e+01 3.065277044641869786e+00
3.320000000000000284e+01 3.055013588649972966e+00
3.330000000000000426e+01 3.045328907156532150e+00
3.339999999999999858e+01 3.036260165176081660e+00
3.350000000000000000e+01 3.027897460278196284e+00
3.360000000000000142e+01 3.020320959277521311e+00
3.370000000000000284e+01 3.013575792321648184e+00
3.380000000000000426e+01 3.007683259313582269e+00
3.389999999999999858e+01 3.002645397680111294e+00
3.400000000000000000e+01 2.998386834394676903e+00
3.410000000000000142e+01 2.994700162186729742e+00
3.420000000000000284e+01 2.991087773049950993e+00
3.430000000000000426e+01 2.986268658671722420e+00
3.439999999999999858e+01 2.975775522264289208e+00
3.450000000000000000e+01 2.950298150952165965e+00
3.460000000000000142e+01 2.930215767680724781e+00
3.470000000000000284e+01 2.910810731797958795e+00
3.480000000000000426e+01 2.892466555477258616e+00
3.489999999999999858e+01 2.875558328372230132e+00
3.500000000000000000e+01 2.860431330817923445e+00
3.510000000000000142e+01 2.847364008015919712e+00
3.520000000000000284e+01 2.836597340286433067e+00
3.530000000000000426e+01 2.828236388704802984e+00
3.539999999999999858e+01 2.822309418934584979e+00
3.550000000000000000e+01 2.818772992168233404e+00
3.560000000000000142e+01 2.817488414018239684e+00
3.570000000000000284e+01 2.818185613660031397e+00
3.580000000000000426e+01 2.820499896890151348e+00
3.589999999999999858e+01 2.824004165216363660e+00
3.600000000000000000e+01 2.828225447503706302e+00
3.610000000000000142e+01 2.832621605980639945e+00
3.620000000000000284e+01 2.836485356783498002e+00
3.630000000000000426e+01 2.838644360217673857e+00
3.639999999999999858e+01 2.837866412585336562e+00
3.650000000000000000e+01 2.837076136958715189e+00
3.660000000000000142e+01 2.836710567121889959e+00
3.670000000000000284e+01 2.836595075984641667e+00
3.680000000000000426e+01 2.836680035629440599e+00
3.689999999999999858e+01 2.836995122614290654e+00
3.700000000000000000e+01 2.837603415673722651e+00
3.710000000000000142e+01 2.838595251322402202e+00
3.720000000000000284e+01 2.839994415937003858e+00
3.730000000000000426e+01 2.841803635862688360e+00
3.739999999999999858e+01 2.843980580381977763e+00
3.750000000000000000e+01 2.846493229441867889e+00
3.760000000000000142e+01 2.849294561353040933e+00
3.770000000000000284e+01 2.852328655114850786e+00
3.780000000000000426e+01 2.855426592070452241e+00
3.789999999999999858e+01 2.858043071154609649e+00
3.800000000000000000e+01 2.717262446859579850e+00
3.810000000000000142e+01 2.693807040475130421e+00
3.820000000000000284e+01 2.669647265475938447e+00
3.830000000000000426e+01 2.645149085716869131e+00
3.840000000000000568e+01 2.620803192389484337e+00
3.850000000000000000e+01 2.597196195450741207e+00
3.860000000000000142e+01 2.574999118884096827e+00
3.870000000000000284e+01 2.554919435332684508e+00
3.880000000000000426e+01 2.537647064439402467e+00
3.890000000000000568e+01 2.523804576822538337e+00
3.900000000000000000e+01 2.513943190341057843e+00
3.910000000000000142e+01 2.508488460111371054e+00
3.920000000000000284e+01 2.507750617903016455e+00
3.930000000000000426e+01 2.511890493900107213e+00
3.940000000000000568e+01 2.520922090277590843e+00
3.950000000000000000e+01 2.534721111369865110e+00
3.960000000000000142e+01 2.553070220867083684e+00
3.970000000000000284e+01 2.575563635623146830e+00
3.980000000000000426e+01 2.601778648200964383e+00
