# ts	Energy
2.600000000000000089e+00 -5.014248649486487963e-01
2.609999999999999876e+00 -4.935413932080137123e-01
2.620000000000000107e+00 -4.857814450099873227e-01
2.629999999999999893e+00 -4.781433445434917218e-01
2.640000000000000124e+00 -4.706254159974512241e-01
2.649999999999999911e+00 -4.632259835607892562e-01
2.660000000000000142e+00 -4.559433714224288003e-01
2.669999999999999929e+00 -4.487759037712928389e-01
2.680000000000000160e+00 -4.417219047963061307e-01
2.689999999999999947e+00 -4.347796984973406609e-01
2.700000000000000178e+00 -4.279475687953948615e-01
2.709999999999999964e+00 -4.212237101902069902e-01
2.720000000000000195e+00 -4.146063050822328400e-01
2.729999999999999982e+00 -4.080935358719286477e-01
2.740000000000000213e+00 -4.016835849597488739e-01
2.750000000000000000e+00 -3.953746347461528643e-01
2.760000000000000231e+00 -3.891648676315919708e-01
2.770000000000000018e+00 -3.830524660165255391e-01
2.780000000000000249e+00 -3.770356123014084737e-01
2.790000000000000036e+00 -3.711125111410638056e-01
2.800000000000000266e+00 -3.652817001815922282e-01
2.810000000000000053e+00 -3.595419734064400075e-01
2.820000000000000284e+00 -3.538921313929388468e-01
2.830000000000000071e+00 -3.483309747184200056e-01
2.839999999999999858e+00 -3.428573039602187400e-01
2.850000000000000089e+00 -3.374699196956636449e-01
2.860000000000000320e+00 -3.321676225020895323e-01
2.870000000000000107e+00 -3.269492129568276617e-01
2.879999999999999893e+00 -3.218134916372106247e-01
2.890000000000000124e+00 -3.167592316222593851e-01
2.899999999999999911e+00 -3.117850959977515046e-01
2.910000000000000142e+00 -3.068897203511538052e-01
2.919999999999999929e+00 -3.020717402699322207e-01
2.930000000000000160e+00 -2.973297913415549054e-01
2.939999999999999947e+00 -2.926625091534882372e-01
2.950000000000000178e+00 -2.880685292931990382e-01
2.959999999999999964e+00 -2.835464873481532422e-01
2.970000000000000195e+00 -2.790950189058185593e-01
2.979999999999999982e+00 -2.747127649916634162e-01
2.990000000000000213e+00 -2.703985780335105282e-01
3.000000000000000000e+00 -2.661515850783207071e-01
3.010000000000000231e+00 -2.619709315263079041e-01
3.020000000000000018e+00 -2.578557627776913996e-01
3.030000000000000249e+00 -2.538052242326869212e-01
3.040000000000000036e+00 -2.498184612915128611e-01
3.050000000000000266e+00 -2.458946193543853909e-01
3.060000000000000053e+00 -2.420328438215220146e-01
3.070000000000000284e+00 -2.382322800931393481e-01
3.080000000000000071e+00 -2.344920584978629208e-01
3.089999999999999858e+00 -2.308111979758407095e-01
3.100000000000000089e+00 -2.271886675425691671e-01
3.110000000000000320e+00 -2.236234359780557845e-01
3.120000000000000107e+00 -2.201144720623062767e-01
3.129999999999999893e+00 -2.166607445753259142e-01
3.140000000000000124e+00 -2.132612222971208560e-01
3.150000000000000355e+00 -2.099148740076954844e-01
3.160000000000000142e+00 -2.066206684870586230e-01
3.169999999999999929e+00 -2.033775750874284860e-01
3.180000000000000160e+00 -2.001846844707588779e-01
3.189999999999999947e+00 -1.970413579570289286e-01
3.200000000000000178e+00 -1.939469934880251323e-01
3.209999999999999964e+00 -1.909009890055335390e-01
3.220000000000000195e+00 -1.879027424513397548e-01
3.229999999999999982e+00 -1.849516517672293858e-01
3.240000000000000213e+00 -1.820471148949884821e-01
3.250000000000000000e+00 -1.791885297764039819e-01
3.260000000000000231e+00 -1.763752943532601591e-01
3.270000000000000018e+00 -1.736067999985584365e-01
3.280000000000000249e+00 -1.708823397968002311e-01
3.290000000000000036e+00 -1.682011311698086153e-01
3.300000000000000266e+00 -1.655623895930991019e-01
3.310000000000000053e+00 -1.629653305421858711e-01
3.320000000000000284e+00 -1.604091694925853240e-01
3.330000000000000071e+00 -1.578931219198125291e-01
3.339999999999999858e+00 -1.554164032993834432e-01
3.350000000000000089e+00 -1.529782291068118028e-01
3.360000000000000320e+00 -1.505778148176148967e-01
3.370000000000000107e+00 -1.482144366164197535e-01
3.379999999999999893e+00 -1.458876135243039052e-01
3.390000000000000124e+00 -1.435969252714581756e-01
3.400000000000000355e+00 -1.413419515880720567e-01
3.410000000000000142e+00 -1.391222722043377047e-01
3.419999999999999929e+00 -1.369374668504437231e-01
3.430000000000000160e+00 -1.347871152565809361e-01
3.439999999999999947e+00 -1.326707971529401675e-01
3.450000000000000178e+00 -1.305880922697113533e-01
3.459999999999999964e+00 -1.285385784066535031e-01
3.470000000000000195e+00 -1.265217583180300309e-01
3.479999999999999982e+00 -1.245370372713461293e-01
3.490000000000000213e+00 -1.225838140189043912e-01
3.500000000000000000e+00 -1.206614873130087418e-01
3.510000000000000231e+00 -1.187694559059595534e-01
3.520000000000000018e+00 -1.169071185500607513e-01
3.530000000000000249e+00 -1.150738739976149283e-01
3.540000000000000036e+00 -1.132691210009237892e-01
3.550000000000000266e+00 -1.114922583122899269e-01
3.560000000000000053e+00 -1.097427114139839510e-01
3.570000000000000284e+00 -1.080201033394430077e-01
3.580000000000000071e+00 -1.063241456651211614e-01
3.589999999999999858e+00 -1.046545503851299408e-01
3.600000000000000089e+00 -1.030110294935790982e-01
3.610000000000000320e+00 -1.013932949845797182e-01
3.620000000000000107e+00 -9.980105885224244133e-02
3.629999999999999893e+00 -9.823403309067790801e-02
3.640000000000000124e+00 -9.669192969399631465e-02
3.650000000000000355e+00 -9.517446042135890849e-02
3.660000000000000142e+00 -9.368128722254498442e-02
3.669999999999999929e+00 -9.221196091602523737e-02
3.680000000000000160e+00 -9.076601728347766240e-02
3.690000000000000391e+00 -8.934299210657892232e-02
3.700000000000000178e+00 -8.794242116700612399e-02
3.709999999999999964e+00 -8.656384024643637431e-02
3.720000000000000195e+00 -8.520678512654678016e-02
3.730000000000000426e+00 -8.387079158901400433e-02
3.740000000000000213e+00 -8.255539541551559779e-02
3.750000000000000000e+00 -8.126014220394628396e-02
3.759999999999999787e+00 -7.998472443190340897e-02
3.770000000000000018e+00 -7.872894764527060829e-02
3.780000000000000249e+00 -7.749262029844139477e-02
3.790000000000000036e+00 -7.627555084580706080e-02
3.799999999999999822e+00 -7.507754774176156332e-02
3.810000000000000053e+00 -7.389841944069619473e-02
3.820000000000000284e+00 -7.273797439700491196e-02
3.830000000000000071e+00 -7.159602106507900743e-02
3.839999999999999858e+00 -7.047236789931288214e-02
3.850000000000000089e+00 -6.936679477067153599e-02
3.860000000000000320e+00 -6.827896721642012778e-02
3.870000000000000107e+00 -6.720852219039619158e-02
3.879999999999999893e+00 -6.615509664643859367e-02
3.890000000000000124e+00 -6.511832753838575627e-02
3.900000000000000355e+00 -6.409785182007476934e-02
3.910000000000000142e+00 -6.309330644534494326e-02
3.919999999999999929e+00 -6.210432836803425616e-02
3.930000000000000160e+00 -6.113055454198068617e-02
3.940000000000000391e+00 -6.017162449487045706e-02
3.950000000000000178e+00 -5.922727781273762204e-02
3.959999999999999964e+00 -5.829738406094531200e-02
3.970000000000000195e+00 -5.738182149159687384e-02
3.980000000000000426e+00 -5.648046835679298994e-02
3.990000000000000213e+00 -5.559320290863656311e-02
4.000000000000000000e+00 -5.471990339922960800e-02
4.009999999999999787e+00 -5.386044808067325107e-02
4.019999999999999574e+00 -5.301471520507039514e-02
4.030000000000000249e+00 -5.218258302452216668e-02
4.040000000000000036e+00 -5.136391577232757299e-02
4.049999999999999822e+00 -5.055847407406321992e-02
4.060000000000000497e+00 -4.976597211801969678e-02
4.070000000000000284e+00 -4.898612387344281061e-02
4.080000000000000071e+00 -4.821864330957881251e-02
4.089999999999999858e+00 -4.746324439567350950e-02
4.099999999999999645e+00 -4.671964110097315270e-02
4.110000000000000320e+00 -4.598754739472443731e-02
4.120000000000000107e+00 -4.526667724617272626e-02
4.129999999999999893e+00 -4.455674490929206755e-02
4.140000000000000568e+00 -4.385752500026196543e-02
4.150000000000000355e+00 -4.316892681131934140e-02
4.160000000000000142e+00 -4.249087785725214061e-02
4.169999999999999929e+00 -4.182330565284964052e-02
4.179999999999999716e+00 -4.116613771290067447e-02
4.190000000000000391e+00 -4.051930155219318763e-02
4.200000000000000178e+00 -3.988272468551690153e-02
4.209999999999999964e+00 -3.925633462766064952e-02
4.220000000000000639e+00 -3.864005889341237676e-02
4.230000000000000426e+00 -3.803381938957528519e-02
4.240000000000000213e+00 -3.743745411086019104e-02
4.250000000000000000e+00 -3.685073645628422767e-02
4.259999999999999787e+00 -3.627343816323813641e-02
4.269999999999999574e+00 -3.570533096911310267e-02
4.280000000000000249e+00 -3.514618661130075594e-02
4.290000000000000036e+00 -3.459577682719272573e-02
4.299999999999999822e+00 -3.405387335417930927e-02
4.310000000000000497e+00 -3.352024792965213607e-02
4.320000000000000284e+00 -3.299467229100283561e-02
4.330000000000000071e+00 -3.247695010738871346e-02
4.339999999999999858e+00 -3.196701277503377625e-02
4.349999999999999645e+00 -3.146482362192815074e-02
4.360000000000000320e+00 -3.097034597606196371e-02
4.370000000000000107e+00 -3.048354316542534193e-02
4.379999999999999893e+00 -3.000437851800885625e-02
4.390000000000000568e+00 -2.953281536180218936e-02
4.400000000000000355e+00 -2.906881702479635621e-02
4.410000000000000142e+00 -2.861234683498059539e-02
4.419999999999999929e+00 -2.816336654006246221e-02
4.429999999999999716e+00 -2.772177645422502223e-02
4.440000000000000391e+00 -2.728739708733352032e-02
4.450000000000000178e+00 -2.686004361579596988e-02
4.459999999999999964e+00 -2.643953121601994027e-02
4.470000000000000639e+00 -2.602567506441344491e-02
4.480000000000000426e+00 -2.561829033738405315e-02
4.490000000000000213e+00 -2.521719221133977840e-02
4.500000000000000000e+00 -2.482219586268863409e-02
4.509999999999999787e+00 -2.443311646783818958e-02
4.519999999999999574e+00 -2.404978402867818943e-02
4.530000000000000249e+00 -2.367213811667223666e-02
4.540000000000000036e+00 -2.330016741269291813e-02
4.549999999999999822e+00 -2.293386082925996661e-02
4.560000000000000497e+00 -2.257320727889311485e-02
4.570000000000000284e+00 -2.221819567411253971e-02
4.580000000000000071e+00 -2.186881492743797395e-02
4.589999999999999858e+00 -2.152505395139003852e-02
4.599999999999999645e+00 -2.118690165848846618e-02
4.610000000000000320e+00 -2.085434677405606507e-02
4.620000000000000107e+00 -2.052733833769426752e-02
4.630000000000000782e+00 -2.020573684491422384e-02
4.640000000000000568e+00 -1.988939081063323400e-02
4.650000000000000355e+00 -1.957814874976770980e-02
4.660000000000000142e+00 -1.927185917723406305e-02
4.669999999999999929e+00 -1.897037060794914964e-02
4.679999999999999716e+00 -1.867353155682938137e-02
4.689999999999999503e+00 -1.838119053879117004e-02
4.700000000000000178e+00 -1.809319606875137154e-02
4.709999999999999964e+00 -1.780940234073380424e-02
4.720000000000000639e+00 -1.752974852503363934e-02
4.730000000000000426e+00 -1.725423920684709955e-02
4.740000000000000213e+00 -1.698288065406883263e-02
4.750000000000000000e+00 -1.671567913459526267e-02
4.759999999999999787e+00 -1.645264091632059333e-02
4.769999999999999574e+00 -1.619377226713991647e-02
4.780000000000000249e+00 -1.593907945494876799e-02
4.790000000000000036e+00 -1.568856874764179565e-02
4.800000000000000711e+00 -1.544224641311453539e-02
4.810000000000000497e+00 -1.520009668501121070e-02
4.820000000000000284e+00 -1.496201565997523630e-02
4.830000000000000071e+00 -1.472787740039871451e-02
4.839999999999999858e+00 -1.449755596867419172e-02
4.849999999999999645e+00 -1.427092542719377022e-02
4.860000000000000320e+00 -1.404785983835088459e-02
4.870000000000000107e+00 -1.382823326453719304e-02
4.880000000000000782e+00 -1.361191976814524196e-02
4.890000000000000568e+00 -1.339879341156757775e-02
4.900000000000000355e+00 -1.318872979127627687e-02
4.910000000000000142e+00 -1.298166414106471933e-02
4.919999999999999929e+00 -1.277760916571946126e-02
4.929999999999999716e+00 -1.257658274754369643e-02
4.939999999999999503e+00 -1.237860276883973043e-02
4.950000000000000178e+00 -1.218368711191031295e-02
4.959999999999999964e+00 -1.199185365905908185e-02
4.970000000000000639e+00 -1.180312029258834272e-02
4.980000000000000426e+00 -1.161750489480084525e-02
4.990000000000000213e+00 -1.143502534799978321e-02
5.000000000000000000e+00 -1.125568894302642065e-02
5.009999999999999787e+00 -1.107942469319755929e-02
5.019999999999999574e+00 -1.090612652761402401e-02
5.030000000000000249e+00 -1.073568820988457517e-02
5.040000000000000036e+00 -1.056800350361797314e-02
5.050000000000000711e+00 -1.040296617242253419e-02
5.060000000000000497e+00 -1.024046997990701868e-02
5.070000000000000284e+00 -1.008040868967974291e-02
5.080000000000000071e+00 -9.922676065350355401e-03
5.089999999999999858e+00 -9.767166048151310065e-03
5.099999999999999645e+00 -9.613810235796549364e-03
5.110000000000000320e+00 -9.462624242577710731e-03
5.120000000000000107e+00 -9.313635050780533220e-03
5.130000000000000782e+00 -9.166869642692088149e-03
5.140000000000000568e+00 -9.022355000597226393e-03
5.150000000000000355e+00 -8.880118106782131093e-03
5.160000000000000142e+00 -8.740185943533429480e-03
5.169999999999999929e+00 -8.602585493136860606e-03
5.179999999999999716e+00 -8.467343737878163523e-03
5.189999999999999503e+00 -8.334483386596591714e-03
5.200000000000000178e+00 -8.203963204703512702e-03
5.209999999999999964e+00 -8.075692733834127779e-03
5.220000000000000639e+00 -7.949580249416055011e-03
5.230000000000000426e+00 -7.825534026877356553e-03
5.240000000000000213e+00 -7.703462341646094558e-03
5.250000000000000000e+00 -7.583273469150775270e-03
5.259999999999999787e+00 -7.464875684819016755e-03
5.269999999999999574e+00 -7.348177264079325255e-03
5.280000000000000249e+00 -7.233086482359318836e-03
5.290000000000000036e+00 -7.119532331438360728e-03
5.300000000000000711e+00 -7.007526668498353928e-03
5.310000000000000497e+00 -6.897102067072946596e-03
5.320000000000000284e+00 -6.788291100694454627e-03
5.330000000000000071e+00 -6.681126342896526182e-03
5.339999999999999858e+00 -6.575640367212365334e-03
5.349999999999999645e+00 -6.471865747174732064e-03
5.360000000000000320e+00 -6.369835056317274535e-03
5.370000000000000107e+00 -6.269580868172308641e-03
5.380000000000000782e+00 -6.171134562624747133e-03
5.390000000000000568e+00 -6.074481116444374607e-03
5.400000000000000355e+00 -5.979545227117188944e-03
5.410000000000000142e+00 -5.886247563562818641e-03
5.419999999999999929e+00 -5.794508794700448107e-03
5.429999999999999716e+00 -5.704249589449261748e-03
5.439999999999999503e+00 -5.615390616728888062e-03
5.450000000000000178e+00 -5.527852545458955547e-03
5.459999999999999964e+00 -5.441556044559092697e-03
5.470000000000000639e+00 -5.356421782947595744e-03
5.480000000000000426e+00 -5.272380157149036961e-03
5.490000000000000213e+00 -5.189433456757264196e-03
5.500000000000000000e+00 -5.107616194054198644e-03
5.509999999999999787e+00 -5.026963033315734464e-03
5.519999999999999574e+00 -4.947508638817765814e-03
5.530000000000000249e+00 -4.869287674836186852e-03
5.540000000000000036e+00 -4.792334805646447649e-03
5.550000000000000711e+00 -4.716684695524442361e-03
5.560000000000000497e+00 -4.642372008746509238e-03
5.570000000000000284e+00 -4.569431270593948824e-03
5.580000000000000071e+00 -4.497867539671407400e-03
5.589999999999999858e+00 -4.427620130535991905e-03
5.599999999999999645e+00 -4.358619462141888334e-03
5.610000000000000320e+00 -4.290795953445059041e-03
5.620000000000000107e+00 -4.224080023401022288e-03
5.630000000000000782e+00 -4.158402090964852249e-03
5.640000000000000568e+00 -4.093692575092067187e-03
5.650000000000000355e+00 -4.029881894737741277e-03
5.660000000000000142e+00 -3.966900468857836870e-03
5.669999999999999929e+00 -3.904682562377193022e-03
5.679999999999999716e+00 -3.843219987329504761e-03
5.689999999999999503e+00 -3.782548855625567086e-03
5.700000000000000178e+00 -3.722706418723742416e-03
5.709999999999999964e+00 -3.663729928081060905e-03
5.720000000000000639e+00 -3.605656635155884970e-03
5.730000000000000426e+00 -3.548523791405688854e-03
5.740000000000000213e+00 -3.492368648287946797e-03
5.750000000000000000e+00 -3.437228457261021219e-03
5.759999999999999787e+00 -3.383140469781942272e-03
5.769999999999999574e+00 -3.330125298661279487e-03
5.780000000000000249e+00 -3.278137002118874932e-03
5.790000000000000036e+00 -3.227112999726333697e-03
5.800000000000000711e+00 -3.176990711056149053e-03
5.810000000000000497e+00 -3.127707555680370177e-03
5.820000000000000284e+00 -3.079200953171046251e-03
5.830000000000000071e+00 -3.031408323100226454e-03
5.839999999999999858e+00 -2.984267085039959966e-03
5.849999999999999645e+00 -2.937714658562295966e-03
5.860000000000000320e+00 -2.891689536527408677e-03
5.870000000000000107e+00 -2.846171935853458734e-03
5.880000000000000782e+00 -2.801196274487605109e-03
5.890000000000000568e+00 -2.756800592722097321e-03
5.900000000000000355e+00 -2.713022930850073067e-03
5.910000000000000142e+00 -2.669901329163781867e-03
5.919999999999999929e+00 -2.627473827955917329e-03
5.929999999999999716e+00 -2.585778467519617152e-03
5.939999999999999503e+00 -2.544853288147130854e-03
5.950000000000000178e+00 -2.504736330131596134e-03
5.959999999999999964e+00 -2.465457592983888446e-03
5.970000000000000639e+00 -2.426987649815526282e-03
5.980000000000000426e+00 -2.389270438649671036e-03
5.990000000000000213e+00 -2.352249771871317563e-03
6.000000000000000000e+00 -2.315869461866792989e-03
6.009999999999999787e+00 -2.280073321021980348e-03
6.019999999999999574e+00 -2.244805161721874498e-03
6.030000000000000249e+00 -2.210008796352358473e-03
6.040000000000000036e+00 -2.175628037299759399e-03
6.050000000000000711e+00 -2.141606821911334890e-03
6.060000000000000497e+00 -2.107915579503849557e-03
6.070000000000000284e+00 -2.074583846476851789e-03
6.080000000000000071e+00 -2.041649156803604370e-03
6.089999999999999858e+00 -2.009149044459146438e-03
6.099999999999999645e+00 -1.977121043417628954e-03
6.110000000000000320e+00 -1.945602687653202878e-03
6.120000000000000107e+00 -1.914631511140019171e-03
6.130000000000000782e+00 -1.884245047852672883e-03
6.140000000000000568e+00 -1.854480831765314974e-03
6.150000000000000355e+00 -1.825373209682901177e-03
6.160000000000000142e+00 -1.796908838914035300e-03
6.169999999999999929e+00 -1.769037665298345274e-03
6.179999999999999716e+00 -1.741708690328636067e-03
6.189999999999999503e+00 -1.714870915498156734e-03
6.200000000000000178e+00 -1.688473342300156332e-03
6.209999999999999964e+00 -1.662464972227883919e-03
6.220000000000000639e+00 -1.636794806773700373e-03
6.230000000000000426e+00 -1.611411847431742927e-03
6.240000000000000213e+00 -1.586265095694372462e-03
6.250000000000000000e+00 -1.561318301933845021e-03
6.259999999999999787e+00 -1.536594212037556417e-03
6.269999999999999574e+00 -1.512130320772797631e-03
6.280000000000000249e+00 -1.487964122905083286e-03
6.290000000000000036e+00 -1.464133113201704361e-03
6.300000000000000711e+00 -1.440674786428619569e-03
6.310000000000000497e+00 -1.417626637353119889e-03
6.320000000000000284e+00 -1.395026160741164034e-03
6.330000000000000071e+00 -1.372910851359154805e-03
6.339999999999999858e+00 -1.351317300079202255e-03
6.349999999999999645e+00 -1.330246958848757544e-03
6.360000000000000320e+00 -1.309655632911521650e-03
6.370000000000000107e+00 -1.289496076864793395e-03
6.380000000000000782e+00 -1.269721045307203866e-03
6.390000000000000568e+00 -1.250283292835163707e-03
6.400000000000000355e+00 -1.231135574046859915e-03
6.410000000000000142e+00 -1.212230643540035402e-03
6.419999999999999929e+00 -1.193521255911988987e-03
6.429999999999999716e+00 -1.174960165760019493e-03
6.439999999999999503e+00 -1.156507301451004111e-03
6.450000000000000178e+00 -1.138175609984859449e-03
6.459999999999999964e+00 -1.120001801470760228e-03
6.470000000000000639e+00 -1.102022698108218179e-03
6.480000000000000426e+00 -1.084275122095412769e-03
6.490000000000000213e+00 -1.066795895632299818e-03
6.500000000000000000e+00 -1.049621840917502880e-03
