# ts	Energy
2.600000000000000089e+00 -3.019146564544694655e-02
2.609999999999999876e+00 -7.408147137750287214e-02
2.620000000000000107e+00 -1.163307286023593790e-01
2.629999999999999893e+00 -1.569825996881588637e-01
2.640000000000000124e+00 -1.960804470030415025e-01
2.649999999999999911e+00 -2.336676329151479159e-01
2.660000000000000142e+00 -2.697875197926182800e-01
2.669999999999999929e+00 -3.044834700035985442e-01
2.680000000000000160e+00 -3.377988459162173385e-01
2.689999999999999947e+00 -3.697769969280702007e-01
2.700000000000000178e+00 -4.004585226799730613e-01
2.709999999999999964e+00 -4.298778877422044786e-01
2.720000000000000195e+00 -4.580687265697900301e-01
2.729999999999999982e+00 -4.850646736177557372e-01
2.740000000000000213e+00 -5.108993633411316182e-01
2.750000000000000000e+00 -5.356064301949308160e-01
2.760000000000000231e+00 -5.592195086341966714e-01
2.770000000000000018e+00 -5.817722331139418834e-01
2.780000000000000249e+00 -6.032982380891960261e-01
2.790000000000000036e+00 -6.238309039026930236e-01
2.800000000000000266e+00 -6.433998086243306602e-01
2.810000000000000053e+00 -6.620316033268496270e-01
2.820000000000000284e+00 -6.797528637904619586e-01
2.830000000000000071e+00 -6.965901657953788018e-01
2.839999999999999858e+00 -7.125700851218037535e-01
2.850000000000000089e+00 -7.277191975499563981e-01
2.860000000000000320e+00 -7.420640788600394444e-01
2.870000000000000107e+00 -7.556313048322662596e-01
2.879999999999999893e+00 -7.684474512468466578e-01
2.890000000000000124e+00 -7.805380386722036157e-01
2.899999999999999911e+00 -7.919243668296123140e-01
2.910000000000000142e+00 -8.026266802285602076e-01
2.919999999999999929e+00 -8.126652233785378598e-01
2.930000000000000160e+00 -8.220602407890282848e-01
2.939999999999999947e+00 -8.308319769695211576e-01
2.950000000000000178e+00 -8.390006764295052655e-01
2.959999999999999964e+00 -8.465865836784676191e-01
2.970000000000000195e+00 -8.536099432258961173e-01
2.979999999999999982e+00 -8.600909528620253042e-01
2.990000000000000213e+00 -8.660479941660872427e-01
3.000000000000000000e+00 -8.714970893949809394e-01
3.010000000000000231e+00 -8.764541031281289918e-01
3.020000000000000018e+00 -8.809348999449468920e-01
3.030000000000000249e+00 -8.849553444248554612e-01
3.040000000000000036e+00 -8.885313011472741884e-01
3.050000000000000266e+00 -8.916786346916207862e-01
3.060000000000000053e+00 -8.944132096373147434e-01
3.070000000000000284e+00 -8.967508905637751049e-01
3.080000000000000071e+00 -8.987071964156614357e-01
3.089999999999999858e+00 -9.002950916807308523e-01
3.100000000000000089e+00 -9.015263959316013320e-01
3.110000000000000320e+00 -9.024129233403455075e-01
3.120000000000000107e+00 -9.029664880790360115e-01
3.129999999999999893e+00 -9.031989043197450329e-01
3.140000000000000124e+00 -9.031219862345465366e-01
3.150000000000000355e+00 -9.027475479955135995e-01
3.160000000000000142e+00 -9.020874037747192986e-01
3.169999999999999929e+00 -9.011533642629157015e-01
3.180000000000000160e+00 -8.999565021112716501e-01
3.189999999999999947e+00 -8.985062433071551169e-01
3.200000000000000178e+00 -8.968117910335320353e-01
3.209999999999999964e+00 -8.948823484733665623e-01
3.220000000000000195e+00 -8.927271188096250754e-01
3.229999999999999982e+00 -8.903553052252730637e-01
3.240000000000000213e+00 -8.877761109032737963e-01
3.250000000000000000e+00 -8.849987390265954268e-01
3.260000000000000231e+00 -8.820323927782012241e-01
3.270000000000000018e+00 -8.788861828035972046e-01
3.280000000000000249e+00 -8.755678351137068383e-01
3.290000000000000036e+00 -8.720840098250102201e-01
3.300000000000000266e+00 -8.684413396354804249e-01
3.310000000000000053e+00 -8.646464572430918594e-01
3.320000000000000284e+00 -8.607059953458162660e-01
3.330000000000000071e+00 -8.566265866416280517e-01
3.339999999999999858e+00 -8.524148638285016233e-01
3.350000000000000089e+00 -8.480774596044087232e-01
3.360000000000000320e+00 -8.436210066673233143e-01
3.370000000000000107e+00 -8.390518894149106011e-01
3.379999999999999893e+00 -8.343754990436016428e-01
3.390000000000000124e+00 -8.295969784495169641e-01
3.400000000000000355e+00 -8.247214705287788661e-01
3.410000000000000142e+00 -8.197541181775123142e-01
3.419999999999999929e+00 -8.147000642918342805e-01
3.430000000000000160e+00 -8.095644517678706187e-01
3.439999999999999947e+00 -8.043524235017422974e-01
3.450000000000000178e+00 -7.990691223895716178e-01
3.459999999999999964e+00 -7.937196740276131202e-01
3.470000000000000195e+00 -7.883085314798146115e-01
3.479999999999999982e+00 -7.828392741668661614e-01
3.490000000000000213e+00 -7.773154231224070898e-01
3.500000000000000000e+00 -7.717404993800829338e-01
3.510000000000000231e+00 -7.661180239735303488e-01
3.520000000000000018e+00 -7.604515179363930955e-01
3.530000000000000249e+00 -7.547445023023113819e-01
3.540000000000000036e+00 -7.490004981049263044e-01
3.550000000000000266e+00 -7.432230263778789592e-01
3.560000000000000053e+00 -7.374155401829103340e-01
3.570000000000000284e+00 -7.315809902269321263e-01
3.580000000000000071e+00 -7.257221020599362582e-01
3.589999999999999858e+00 -7.198416001698548783e-01
3.600000000000000089e+00 -7.139422090446170266e-01
3.610000000000000320e+00 -7.080266531721544077e-01
3.620000000000000107e+00 -7.020976570403982819e-01
3.629999999999999893e+00 -6.961579451372790217e-01
3.640000000000000124e+00 -6.902102419507278874e-01
3.650000000000000355e+00 -6.842572706057281628e-01
3.660000000000000142e+00 -6.783014652827290547e-01
3.669999999999999929e+00 -6.723446154887424697e-01
3.680000000000000160e+00 -6.663884235022465852e-01
3.690000000000000391e+00 -6.604345916017169138e-01
3.700000000000000178e+00 -6.544848220656289683e-01
3.709999999999999964e+00 -6.485408171724591497e-01
3.720000000000000195e+00 -6.426042792006825266e-01
3.730000000000000426e+00 -6.366769104287754999e-01
3.740000000000000213e+00 -6.307604131352122501e-01
3.750000000000000000e+00 -6.248564760297443677e-01
3.759999999999999787e+00 -6.189665847937280141e-01
3.770000000000000018e+00 -6.130920688168757238e-01
3.780000000000000249e+00 -6.072342534685328808e-01
3.790000000000000036e+00 -6.013944641180430928e-01
3.799999999999999822e+00 -5.955740261347517439e-01
3.810000000000000053e+00 -5.897742648880037741e-01
3.820000000000000284e+00 -5.839965057471436793e-01
3.830000000000000071e+00 -5.782420740815163995e-01
3.839999999999999858e+00 -5.725122952604690951e-01
3.850000000000000089e+00 -5.668083850309217908e-01
3.860000000000000320e+00 -5.611311206501152782e-01
3.870000000000000107e+00 -5.554811697528658776e-01
3.879999999999999893e+00 -5.498591999739890213e-01
3.890000000000000124e+00 -5.442658789483028059e-01
3.900000000000000355e+00 -5.387018743106222196e-01
3.910000000000000142e+00 -5.331678536957671355e-01
3.919999999999999929e+00 -5.276644847385494330e-01
3.930000000000000160e+00 -5.221924350737898735e-01
3.940000000000000391e+00 -5.167523710009502835e-01
3.950000000000000178e+00 -5.113449069076252407e-01
3.959999999999999964e+00 -5.059705897460573532e-01
3.970000000000000195e+00 -5.006299619616698671e-01
3.980000000000000426e+00 -4.953235659998869167e-01
3.990000000000000213e+00 -4.900519443061321923e-01
4.000000000000000000e+00 -4.848156393258307162e-01
4.009999999999999787e+00 -4.796151935044035142e-01
4.019999999999999574e+00 -4.744511492872782732e-01
4.030000000000000249e+00 -4.693240491198751307e-01
4.040000000000000036e+00 -4.642343986132533296e-01
4.049999999999999822e+00 -4.591824311494776545e-01
4.060000000000000497e+00 -4.541682580967707494e-01
4.070000000000000284e+00 -4.491919902478245241e-01
4.080000000000000071e+00 -4.442537383953215624e-01
4.089999999999999858e+00 -4.393536133319542181e-01
4.099999999999999645e+00 -4.344917258504059632e-01
4.110000000000000320e+00 -4.296681867433678192e-01
4.120000000000000107e+00 -4.248831068035259229e-01
4.129999999999999893e+00 -4.201365968416812535e-01
4.140000000000000568e+00 -4.154287715085631660e-01
4.150000000000000355e+00 -4.107597540222878152e-01
4.160000000000000142e+00 -4.061296687601991806e-01
4.169999999999999929e+00 -4.015386400996345806e-01
4.179999999999999716e+00 -3.969867924179388829e-01
4.190000000000000391e+00 -3.924742500924498501e-01
4.200000000000000178e+00 -3.880011375005105734e-01
4.209999999999999964e+00 -3.835675790194619239e-01
4.220000000000000639e+00 -3.791736990266438845e-01
4.230000000000000426e+00 -3.748196111872914571e-01
4.240000000000000213e+00 -3.705052688817391804e-01
4.250000000000000000e+00 -3.662305021027019158e-01
4.259999999999999787e+00 -3.619951376689294342e-01
4.269999999999999574e+00 -3.577990023991772794e-01
4.280000000000000249e+00 -3.536419231121947782e-01
4.290000000000000036e+00 -3.495237266267379184e-01
4.299999999999999822e+00 -3.454442397615573590e-01
4.310000000000000497e+00 -3.414032893354059794e-01
4.320000000000000284e+00 -3.374007021670379913e-01
4.330000000000000071e+00 -3.334363208703692294e-01
4.339999999999999858e+00 -3.295100512399824488e-01
4.349999999999999645e+00 -3.256218148656198075e-01
4.360000000000000320e+00 -3.217715333370296804e-01
4.370000000000000107e+00 -3.179591282439560018e-01
4.379999999999999893e+00 -3.141845211761440382e-01
4.390000000000000568e+00 -3.104476337233403882e-01
4.400000000000000355e+00 -3.067483874752889861e-01
4.410000000000000142e+00 -3.030867040217368746e-01
4.419999999999999929e+00 -2.994625026222679232e-01
4.429999999999999716e+00 -2.958756119514958094e-01
4.440000000000000391e+00 -2.923257430109451604e-01
4.450000000000000178e+00 -2.888125989378558245e-01
4.459999999999999964e+00 -2.853358828694636529e-01
4.470000000000000639e+00 -2.818952979430049410e-01
4.480000000000000426e+00 -2.784905472957190931e-01
4.490000000000000213e+00 -2.751213340648401839e-01
4.500000000000000000e+00 -2.717873613876085059e-01
4.509999999999999787e+00 -2.684883324012581340e-01
4.519999999999999574e+00 -2.652239613763267556e-01
4.530000000000000249e+00 -2.619940448653728104e-01
4.540000000000000036e+00 -2.587984163000083271e-01
4.549999999999999822e+00 -2.556369092858012948e-01
4.560000000000000497e+00 -2.525093574283174824e-01
4.570000000000000284e+00 -2.494155943331275438e-01
4.580000000000000071e+00 -2.463554536057963595e-01
4.589999999999999858e+00 -2.433287688518936953e-01
4.599999999999999645e+00 -2.403353736769853199e-01
4.610000000000000320e+00 -2.373751014664251535e-01
4.620000000000000107e+00 -2.344477389198087458e-01
4.630000000000000782e+00 -2.315529685746469113e-01
4.640000000000000568e+00 -2.286904588746399014e-01
4.650000000000000355e+00 -2.258598782634844149e-01
4.660000000000000142e+00 -2.230608951848802590e-01
4.669999999999999929e+00 -2.202931780825236885e-01
4.679999999999999716e+00 -2.175563954001153988e-01
4.689999999999999503e+00 -2.148502155813520886e-01
4.700000000000000178e+00 -2.121743070699331213e-01
4.709999999999999964e+00 -2.095283434387149590e-01
4.720000000000000639e+00 -2.069120750079580517e-01
4.730000000000000426e+00 -2.043253111782279419e-01
4.740000000000000213e+00 -2.017678628698389431e-01
4.750000000000000000e+00 -1.992395410031067016e-01
4.759999999999999787e+00 -1.967401564983459750e-01
4.769999999999999574e+00 -1.942695202758732975e-01
4.780000000000000249e+00 -1.918274432560020948e-01
4.790000000000000036e+00 -1.894137363590489009e-01
4.800000000000000711e+00 -1.870282105053284738e-01
4.810000000000000497e+00 -1.846706540595768331e-01
4.820000000000000284e+00 -1.823407651642146021e-01
4.830000000000000071e+00 -1.800382194060805574e-01
4.839999999999999858e+00 -1.777626923720170282e-01
4.849999999999999645e+00 -1.755138596488627911e-01
4.860000000000000320e+00 -1.732913968234592872e-01
4.870000000000000107e+00 -1.710949794826475134e-01
4.880000000000000782e+00 -1.689242832132662464e-01
4.890000000000000568e+00 -1.667789836021587035e-01
4.900000000000000355e+00 -1.646587577854630169e-01
4.910000000000000142e+00 -1.625633431283906027e-01
4.919999999999999929e+00 -1.604925552358356100e-01
4.929999999999999716e+00 -1.584462149415868382e-01
4.939999999999999503e+00 -1.564241430794299781e-01
4.950000000000000178e+00 -1.544261604831529411e-01
4.959999999999999964e+00 -1.524520879865423062e-01
4.970000000000000639e+00 -1.505017464233842084e-01
4.980000000000000426e+00 -1.485749566274674471e-01
4.990000000000000213e+00 -1.466715394325768251e-01
5.000000000000000000e+00 -1.447913057631460276e-01
5.009999999999999787e+00 -1.429339933072775182e-01
5.019999999999999574e+00 -1.410993069283388301e-01
5.030000000000000249e+00 -1.392869513348604649e-01
5.040000000000000036e+00 -1.374966312353755882e-01
5.050000000000000711e+00 -1.357280513384151455e-01
5.060000000000000497e+00 -1.339809163525114144e-01
5.070000000000000284e+00 -1.322549309861966726e-01
5.080000000000000071e+00 -1.305497999480023097e-01
5.089999999999999858e+00 -1.288652281351403417e-01
5.099999999999999645e+00 -1.272009604447426057e-01
5.110000000000000320e+00 -1.255568310190553483e-01
5.120000000000000107e+00 -1.239326860757712367e-01
5.130000000000000782e+00 -1.223283718325829383e-01
5.140000000000000568e+00 -1.207437345071840085e-01
5.150000000000000355e+00 -1.191786203172666703e-01
5.160000000000000142e+00 -1.176328754805253674e-01
5.169999999999999929e+00 -1.161063462146514347e-01
5.179999999999999716e+00 -1.145988787373397599e-01
5.189999999999999503e+00 -1.131103154101116282e-01
5.200000000000000178e+00 -1.116404408947508919e-01
5.209999999999999964e+00 -1.101889954356689572e-01
5.220000000000000639e+00 -1.087557181347076352e-01
5.230000000000000426e+00 -1.073403480937091814e-01
5.240000000000000213e+00 -1.059426244145145191e-01
5.250000000000000000e+00 -1.045622861989672359e-01
5.259999999999999787e+00 -1.031990725489069227e-01
5.269999999999999574e+00 -1.018527225661776114e-01
5.280000000000000249e+00 -1.005229753526197811e-01
5.290000000000000036e+00 -9.920959285749164636e-02
5.300000000000000711e+00 -9.791242841971525834e-02
5.310000000000000497e+00 -9.663135822562640698e-02
5.320000000000000284e+00 -9.536625846156443487e-02
5.330000000000000071e+00 -9.411700531386424373e-02
5.339999999999999858e+00 -9.288347496886517618e-02
5.349999999999999645e+00 -9.166554361290346620e-02
5.360000000000000320e+00 -9.046308743231623595e-02
5.370000000000000107e+00 -8.927598261344105168e-02
5.380000000000000782e+00 -8.810410427393611243e-02
5.390000000000000568e+00 -8.694728598655343532e-02
5.400000000000000355e+00 -8.580530735574276591e-02
5.410000000000000142e+00 -8.467794437916209560e-02
5.419999999999999929e+00 -8.356497305446897172e-02
5.429999999999999716e+00 -8.246616937932094160e-02
5.439999999999999503e+00 -8.138130935137555255e-02
5.450000000000000178e+00 -8.031016896829035190e-02
5.459999999999999964e+00 -7.925252422772288696e-02
5.470000000000000639e+00 -7.820815112733070507e-02
5.480000000000000426e+00 -7.717683646217032845e-02
5.490000000000000213e+00 -7.615844682682038069e-02
5.500000000000000000e+00 -7.515288458224445023e-02
5.509999999999999787e+00 -7.416005225811250767e-02
5.519999999999999574e+00 -7.317985238409630000e-02
5.530000000000000249e+00 -7.221218748986757419e-02
5.540000000000000036e+00 -7.125696010509807721e-02
5.550000000000000711e+00 -7.031407275945822377e-02
5.560000000000000497e+00 -6.938342798262020494e-02
5.570000000000000284e+00 -6.846492818183635976e-02
5.580000000000000071e+00 -6.755844981151426509e-02
5.589999999999999858e+00 -6.666381142184008013e-02
5.599999999999999645e+00 -6.578082372817695145e-02
5.610000000000000320e+00 -6.490929744588980199e-02
5.620000000000000107e+00 -6.404904329034266652e-02
5.630000000000000782e+00 -6.319987197689957981e-02
5.640000000000000568e+00 -6.236159422092546478e-02
5.650000000000000355e+00 -6.153402073778346804e-02
5.660000000000000142e+00 -6.071696224283940069e-02
5.669999999999999929e+00 -5.991023368498504809e-02
5.679999999999999716e+00 -5.911371335925919013e-02
5.689999999999999503e+00 -5.832732832468412454e-02
5.700000000000000178e+00 -5.755100689466408070e-02
5.709999999999999964e+00 -5.678467738260106756e-02
5.720000000000000639e+00 -5.602826810189753814e-02
5.730000000000000426e+00 -5.528170736595772183e-02
5.740000000000000213e+00 -5.454492348818318348e-02
5.750000000000000000e+00 -5.381784478197770838e-02
5.759999999999999787e+00 -5.310039956074286138e-02
5.769999999999999574e+00 -5.239250134370188050e-02
5.780000000000000249e+00 -5.169400447334870918e-02
5.790000000000000036e+00 -5.100474849799940813e-02
5.800000000000000711e+00 -5.032457296596737351e-02
5.810000000000000497e+00 -4.965331742556733374e-02
5.820000000000000284e+00 -4.899082142511357318e-02
5.830000000000000071e+00 -4.833692451292082026e-02
5.839999999999999858e+00 -4.769146623730335932e-02
5.849999999999999645e+00 -4.705428614657547470e-02
5.860000000000000320e+00 -4.642522496476120253e-02
5.870000000000000107e+00 -4.580416912159090970e-02
5.880000000000000782e+00 -4.519106442012299496e-02
5.890000000000000568e+00 -4.458586063143643585e-02
5.900000000000000355e+00 -4.398850752660976582e-02
5.910000000000000142e+00 -4.339895487672196239e-02
5.919999999999999929e+00 -4.281715245285067084e-02
5.929999999999999716e+00 -4.224305002607531279e-02
5.939999999999999503e+00 -4.167659736747397758e-02
5.950000000000000178e+00 -4.111774424812564277e-02
5.959999999999999964e+00 -4.056643321230790633e-02
5.970000000000000639e+00 -4.002255339372506882e-02
5.980000000000000426e+00 -3.948596998730513619e-02
5.990000000000000213e+00 -3.895654807505533057e-02
6.000000000000000000e+00 -3.843415273898509454e-02
6.009999999999999787e+00 -3.791864906110253841e-02
6.019999999999999574e+00 -3.740990212341666066e-02
6.030000000000000249e+00 -3.690777700793468341e-02
6.040000000000000036e+00 -3.641213879666649333e-02
6.050000000000000711e+00 -3.592285270727613167e-02
6.060000000000000497e+00 -3.543981271647567155e-02
6.070000000000000284e+00 -3.496297696621342155e-02
6.080000000000000071e+00 -3.449231228041371722e-02
6.089999999999999858e+00 -3.402778548300178230e-02
6.099999999999999645e+00 -3.356936339790150825e-02
6.110000000000000320e+00 -3.311701284903767473e-02
6.120000000000000107e+00 -3.267070066033550546e-02
6.130000000000000782e+00 -3.223039365571889192e-02
6.140000000000000568e+00 -3.179605865911305784e-02
6.150000000000000355e+00 -3.136765958203246996e-02
6.160000000000000142e+00 -3.094511675771682846e-02
6.169999999999999929e+00 -3.052831697276037204e-02
6.179999999999999716e+00 -3.011714615082317081e-02
6.189999999999999503e+00 -2.971149021556351855e-02
6.200000000000000178e+00 -2.931123509064148536e-02
6.209999999999999964e+00 -2.891626669971580910e-02
6.220000000000000639e+00 -2.852647096644567171e-02
6.230000000000000426e+00 -2.814173381449025513e-02
6.240000000000000213e+00 -2.776194116750874130e-02
6.250000000000000000e+00 -2.738699488725249154e-02
6.259999999999999787e+00 -2.701686058783714373e-02
6.269999999999999574e+00 -2.665151982147273557e-02
6.280000000000000249e+00 -2.629095414036664025e-02
6.290000000000000036e+00 -2.593514509672800727e-02
6.300000000000000711e+00 -2.558407424276509801e-02
6.310000000000000497e+00 -2.523772313068706197e-02
6.320000000000000284e+00 -2.489607331270127233e-02
6.330000000000000071e+00 -2.455910634101732271e-02
6.339999999999999858e+00 -2.422680292701651084e-02
6.349999999999999645e+00 -2.389911109492004471e-02
6.360000000000000320e+00 -2.357593640717459138e-02
6.370000000000000107e+00 -2.325718158843415040e-02
6.380000000000000782e+00 -2.294274936335316539e-02
6.390000000000000568e+00 -2.263254245658607999e-02
6.400000000000000355e+00 -2.232646359278600556e-02
6.410000000000000142e+00 -2.202441549660827391e-02
6.419999999999999929e+00 -2.172630089270599640e-02
6.429999999999999716e+00 -2.143202250573406076e-02
6.439999999999999503e+00 -2.114149072626014814e-02
6.450000000000000178e+00 -2.085467260074524987e-02
6.459999999999999964e+00 -2.057156056898934438e-02
6.470000000000000639e+00 -2.029214719057215177e-02
6.480000000000000426e+00 -2.001642502507383625e-02
6.490000000000000213e+00 -1.974438663207367384e-02
6.500000000000000000e+00 -1.947602457115271690e-02
