# ts	Energy
2.600000000000000089e+00 4.712333993032018498e-01
2.609999999999999876e+00 4.194599218305112842e-01
2.620000000000000107e+00 3.694507164076279437e-01
2.629999999999999893e+00 3.211607448553328581e-01
2.640000000000000124e+00 2.745449689944101657e-01
2.649999999999999911e+00 2.295583506456417844e-01
2.660000000000000142e+00 1.861558516298109645e-01
2.669999999999999929e+00 1.442924337676947388e-01
2.680000000000000160e+00 1.039230588800892363e-01
2.689999999999999947e+00 6.500270156927090426e-02
2.700000000000000178e+00 2.748904611542224430e-02
2.709999999999999964e+00 -8.654177551997044304e-03
2.720000000000000195e+00 -4.346242148755674606e-02
2.729999999999999982e+00 -7.697113774582664547e-02
2.740000000000000213e+00 -1.092157783813823002e-01
2.750000000000000000e+00 -1.402317954487775076e-01
2.760000000000000231e+00 -1.700546410026047006e-01
2.770000000000000018e+00 -1.987197670974159003e-01
2.780000000000000249e+00 -2.262626257877875524e-01
2.790000000000000036e+00 -2.527183927616287740e-01
2.800000000000000266e+00 -2.781181084427375438e-01
2.810000000000000053e+00 -3.024896299204091754e-01
2.820000000000000284e+00 -3.258607323975226677e-01
2.830000000000000071e+00 -3.482591910769583521e-01
2.839999999999999858e+00 -3.697127811615841253e-01
2.850000000000000089e+00 -3.902492778542918650e-01
2.860000000000000320e+00 -4.098964563579494680e-01
2.870000000000000107e+00 -4.286820918754381537e-01
2.879999999999999893e+00 -4.466339596096355891e-01
2.890000000000000124e+00 -4.637788070499437865e-01
2.899999999999999911e+00 -4.801392708318603653e-01
2.910000000000000142e+00 -4.957369598774059583e-01
2.919999999999999929e+00 -5.105934831086051950e-01
2.930000000000000160e+00 -5.247304494474724912e-01
2.939999999999999947e+00 -5.381694678160320322e-01
2.950000000000000178e+00 -5.509321471363053391e-01
2.959999999999999964e+00 -5.630400963303134887e-01
2.970000000000000195e+00 -5.745149243200775580e-01
2.979999999999999982e+00 -5.853781878703614439e-01
2.990000000000000213e+00 -5.956494161325762704e-01
3.000000000000000000e+00 -6.053455043166597882e-01
3.010000000000000231e+00 -6.144831716018206436e-01
3.020000000000000018e+00 -6.230791371672554924e-01
3.030000000000000249e+00 -6.311501201921680959e-01
3.040000000000000036e+00 -6.387128398557608833e-01
3.050000000000000266e+00 -6.457840153372349512e-01
3.060000000000000053e+00 -6.523803658157927288e-01
3.070000000000000284e+00 -6.585186104706353127e-01
3.080000000000000071e+00 -6.642151379177976267e-01
3.089999999999999858e+00 -6.694838937048896987e-01
3.100000000000000089e+00 -6.743377283890321650e-01
3.110000000000000320e+00 -6.787894873622892788e-01
3.120000000000000107e+00 -6.828520160167288466e-01
3.129999999999999893e+00 -6.865381597444191186e-01
3.140000000000000124e+00 -6.898607639374256806e-01
3.150000000000000355e+00 -6.928326739878172269e-01
3.160000000000000142e+00 -6.954667352876597874e-01
3.169999999999999929e+00 -6.977757891754863273e-01
3.180000000000000160e+00 -6.997718176405123280e-01
3.189999999999999947e+00 -7.014648853501257442e-01
3.200000000000000178e+00 -7.028647975455060148e-01
3.209999999999999964e+00 -7.039813594678330233e-01
3.220000000000000195e+00 -7.048243763582853205e-01
3.229999999999999982e+00 -7.054036534580427897e-01
3.240000000000000213e+00 -7.057289960082844260e-01
3.250000000000000000e+00 -7.058102092501910008e-01
3.260000000000000231e+00 -7.056570984249406209e-01
3.270000000000000018e+00 -7.052793828050383240e-01
3.280000000000000249e+00 -7.046854953169061631e-01
3.290000000000000036e+00 -7.038828786552007166e-01
3.300000000000000266e+00 -7.028789500423813230e-01
3.310000000000000053e+00 -7.016811267009051001e-01
3.320000000000000284e+00 -7.002968258532304979e-01
3.330000000000000071e+00 -6.987334647218155226e-01
3.339999999999999858e+00 -6.969984605291177360e-01
3.350000000000000089e+00 -6.950992304975960323e-01
3.360000000000000320e+00 -6.930431918497079735e-01
3.370000000000000107e+00 -6.908374527984908475e-01
3.379999999999999893e+00 -6.884878855192972935e-01
3.390000000000000124e+00 -6.860000531780583444e-01
3.400000000000000355e+00 -6.833795189407063653e-01
3.410000000000000142e+00 -6.806318459731741655e-01
3.419999999999999929e+00 -6.777625974413901133e-01
3.430000000000000160e+00 -6.747773365112892385e-01
3.439999999999999947e+00 -6.716816263488016858e-01
3.450000000000000178e+00 -6.684810301198598204e-01
3.459999999999999964e+00 -6.651810956209591730e-01
3.470000000000000195e+00 -6.617867731617841365e-01
3.479999999999999982e+00 -6.583022368955191439e-01
3.490000000000000213e+00 -6.547316091035026986e-01
3.500000000000000000e+00 -6.510790120670741921e-01
3.510000000000000231e+00 -6.473485680675703513e-01
3.520000000000000018e+00 -6.435443993863319001e-01
3.530000000000000249e+00 -6.396706283046960095e-01
3.540000000000000036e+00 -6.357313771040020711e-01
3.550000000000000266e+00 -6.317307680655885882e-01
3.560000000000000053e+00 -6.276728287689259389e-01
3.570000000000000284e+00 -6.235608868874891186e-01
3.580000000000000071e+00 -6.193979563948146527e-01
3.589999999999999858e+00 -6.151870497847249375e-01
3.600000000000000089e+00 -6.109311795510374843e-01
3.610000000000000320e+00 -6.066333581875742453e-01
3.620000000000000107e+00 -6.022965981881549524e-01
3.629999999999999893e+00 -5.979239120466011137e-01
3.640000000000000124e+00 -5.935183122567311287e-01
3.650000000000000355e+00 -5.890828101843692544e-01
3.660000000000000142e+00 -5.846201780601836262e-01
3.669999999999999929e+00 -5.801326545727167883e-01
3.680000000000000160e+00 -5.756224062187689228e-01
3.690000000000000391e+00 -5.710915994951375474e-01
3.700000000000000178e+00 -5.665424008986224003e-01
3.709999999999999964e+00 -5.619769769260223313e-01
3.720000000000000195e+00 -5.573974940741353024e-01
3.730000000000000426e+00 -5.528061188397606074e-01
3.740000000000000213e+00 -5.482050177196966523e-01
3.750000000000000000e+00 -5.435963338257971955e-01
3.759999999999999787e+00 -5.389818603618241610e-01
3.770000000000000018e+00 -5.343631211716051155e-01
3.780000000000000249e+00 -5.297416331700914860e-01
3.790000000000000036e+00 -5.251189132722355879e-01
3.799999999999999822e+00 -5.204964783929897365e-01
3.810000000000000053e+00 -5.158758454473066912e-01
3.820000000000000284e+00 -5.112585313501387674e-01
3.830000000000000071e+00 -5.066460530164365039e-01
3.839999999999999858e+00 -5.020399273611557689e-01
3.850000000000000089e+00 -4.974415902602498107e-01
3.860000000000000320e+00 -4.928521534336951504e-01
3.870000000000000107e+00 -4.882726475624687978e-01
3.879999999999999893e+00 -4.837041033275499835e-01
3.890000000000000124e+00 -4.791475514099170496e-01
3.900000000000000355e+00 -4.746040224905470062e-01
3.910000000000000142e+00 -4.700745472504213041e-01
3.919999999999999929e+00 -4.655601563705147328e-01
3.930000000000000160e+00 -4.610618805318091873e-01
3.940000000000000391e+00 -4.565807465060793824e-01
3.950000000000000178e+00 -4.521176290948876186e-01
3.959999999999999964e+00 -4.476732056851115971e-01
3.970000000000000195e+00 -4.432481404700729932e-01
3.980000000000000426e+00 -4.388430976430934827e-01
3.990000000000000213e+00 -4.344587413974951851e-01
4.000000000000000000e+00 -4.300957359266006641e-01
4.009999999999999787e+00 -4.257547454237302631e-01
4.019999999999999574e+00 -4.214364340822074340e-01
4.030000000000000249e+00 -4.171414660953525200e-01
4.040000000000000036e+00 -4.128704828409257566e-01
4.049999999999999822e+00 -4.086239570754139905e-01
4.060000000000000497e+00 -4.044022859787510527e-01
4.070000000000000284e+00 -4.002058663743812694e-01
4.080000000000000071e+00 -3.960350950857427499e-01
4.089999999999999858e+00 -3.918903689362798204e-01
4.099999999999999645e+00 -3.877720847494323664e-01
4.110000000000000320e+00 -3.836806393486429378e-01
4.120000000000000107e+00 -3.796164295573527525e-01
4.129999999999999893e+00 -3.755798519323887419e-01
4.140000000000000568e+00 -3.715712465083003124e-01
4.150000000000000355e+00 -3.675908272109680297e-01
4.160000000000000142e+00 -3.636387909029461518e-01
4.169999999999999929e+00 -3.597153344467844960e-01
4.179999999999999716e+00 -3.558206547050377644e-01
4.190000000000000391e+00 -3.519549485402557742e-01
4.200000000000000178e+00 -3.481184128149932278e-01
4.209999999999999964e+00 -3.443112443918008303e-01
4.220000000000000639e+00 -3.405336401332310636e-01
4.230000000000000426e+00 -3.367857917977152837e-01
4.240000000000000213e+00 -3.330678147708785453e-01
4.250000000000000000e+00 -3.293797656464176882e-01
4.259999999999999787e+00 -3.257216995056908537e-01
4.269999999999999574e+00 -3.220936714300637327e-01
4.280000000000000249e+00 -3.184957365008935781e-01
4.290000000000000036e+00 -3.149279497995447485e-01
4.299999999999999822e+00 -3.113903664073776056e-01
4.310000000000000497e+00 -3.078830414057533993e-01
4.320000000000000284e+00 -3.044060298760342675e-01
4.330000000000000071e+00 -3.009593707629800718e-01
4.339999999999999858e+00 -2.975430384649477844e-01
4.349999999999999645e+00 -2.941569912436912126e-01
4.360000000000000320e+00 -2.908011873609668285e-01
4.370000000000000107e+00 -2.874755850785297717e-01
4.379999999999999893e+00 -2.841801426581351819e-01
4.390000000000000568e+00 -2.809148183615377548e-01
4.400000000000000355e+00 -2.776795704504921858e-01
4.410000000000000142e+00 -2.744743571867558352e-01
4.419999999999999929e+00 -2.712991360822050169e-01
4.429999999999999716e+00 -2.681538354972703431e-01
4.440000000000000391e+00 -2.650383459236111960e-01
4.450000000000000178e+00 -2.619525553220594105e-01
4.459999999999999964e+00 -2.588963516534432685e-01
4.470000000000000639e+00 -2.558696228785910520e-01
4.480000000000000426e+00 -2.528722569583345958e-01
4.490000000000000213e+00 -2.499041418534999615e-01
4.500000000000000000e+00 -2.469651655249194278e-01
4.509999999999999787e+00 -2.440552159334195004e-01
4.519999999999999574e+00 -2.411741773476481221e-01
4.530000000000000249e+00 -2.383219067486996856e-01
4.540000000000000036e+00 -2.354982488873149649e-01
4.549999999999999822e+00 -2.327030484565408841e-01
4.560000000000000497e+00 -2.299361501494243676e-01
4.570000000000000284e+00 -2.271973986590145600e-01
4.580000000000000071e+00 -2.244866386783579415e-01
4.589999999999999858e+00 -2.218037149005032127e-01
4.599999999999999645e+00 -2.191484720184964097e-01
4.610000000000000320e+00 -2.165207546923682003e-01
4.620000000000000107e+00 -2.139204005821140342e-01
4.630000000000000782e+00 -2.113472317297322434e-01
4.640000000000000568e+00 -2.088010680640062233e-01
4.650000000000000355e+00 -2.062817295137162610e-01
4.660000000000000142e+00 -2.037890360076453078e-01
4.669999999999999929e+00 -2.013228074745740948e-01
4.679999999999999716e+00 -1.988828638432860174e-01
4.689999999999999503e+00 -1.964690250425604745e-01
4.700000000000000178e+00 -1.940811110011813057e-01
4.709999999999999964e+00 -1.917189410979807107e-01
4.720000000000000639e+00 -1.893823264829244124e-01
4.730000000000000426e+00 -1.870710719713808423e-01
4.740000000000000213e+00 -1.847849822157692223e-01
4.750000000000000000e+00 -1.825238618685114389e-01
4.759999999999999787e+00 -1.802875155820249375e-01
4.769999999999999574e+00 -1.780757480087329370e-01
4.780000000000000249e+00 -1.758883638010528827e-01
4.790000000000000036e+00 -1.737251676114066612e-01
4.800000000000000711e+00 -1.715859640922134943e-01
4.810000000000000497e+00 -1.694705573745651783e-01
4.820000000000000284e+00 -1.673787495042389217e-01
4.830000000000000071e+00 -1.653103420056813988e-01
4.839999999999999858e+00 -1.632651364033423924e-01
4.849999999999999645e+00 -1.612429342216681327e-01
4.860000000000000320e+00 -1.592435369851084026e-01
4.870000000000000107e+00 -1.572667462181098763e-01
4.880000000000000782e+00 -1.553123634451205604e-01
4.890000000000000568e+00 -1.533801901905902376e-01
4.900000000000000355e+00 -1.514700279941867400e-01
4.910000000000000142e+00 -1.495816789873254393e-01
4.919999999999999929e+00 -1.477149460701157047e-01
4.929999999999999716e+00 -1.458696321940426976e-01
4.939999999999999503e+00 -1.440455403105898036e-01
4.950000000000000178e+00 -1.422424733712421840e-01
4.959999999999999964e+00 -1.404602343274827803e-01
4.970000000000000639e+00 -1.386986261307954216e-01
4.980000000000000426e+00 -1.369574517326657137e-01
4.990000000000000213e+00 -1.352365140845765978e-01
5.000000000000000000e+00 -1.335356168201191629e-01
5.009999999999999787e+00 -1.318545686140795148e-01
5.019999999999999574e+00 -1.301931804007243620e-01
5.030000000000000249e+00 -1.285512631249754456e-01
5.040000000000000036e+00 -1.269286277317571709e-01
5.050000000000000711e+00 -1.253250851659921672e-01
5.060000000000000497e+00 -1.237404463726039516e-01
5.070000000000000284e+00 -1.221745222965164857e-01
5.080000000000000071e+00 -1.206271238826519543e-01
5.089999999999999858e+00 -1.190980620869885875e-01
5.099999999999999645e+00 -1.175871502089460563e-01
5.110000000000000320e+00 -1.160942067764776375e-01
5.120000000000000107e+00 -1.146190510249902594e-01
5.130000000000000782e+00 -1.131615021898904061e-01
5.140000000000000568e+00 -1.117213795065863380e-01
5.150000000000000355e+00 -1.102985022104840951e-01
5.160000000000000142e+00 -1.088926895369910497e-01
5.169999999999999929e+00 -1.075037607215145741e-01
5.179999999999999716e+00 -1.061315349994611523e-01
5.189999999999999503e+00 -1.047758320235145924e-01
5.200000000000000178e+00 -1.034364776900469352e-01
5.209999999999999964e+00 -1.021133027018348294e-01
5.220000000000000639e+00 -1.008061378852911361e-01
5.230000000000000426e+00 -9.951481406683182485e-02
5.240000000000000213e+00 -9.823916207286798041e-02
5.250000000000000000e+00 -9.697901272981601650e-02
5.259999999999999787e+00 -9.573419686408746188e-02
5.269999999999999574e+00 -9.450454530209784210e-02
5.280000000000000249e+00 -9.328988887025957411e-02
5.290000000000000036e+00 -9.209006052605284154e-02
5.300000000000000711e+00 -9.090490175121601624e-02
5.310000000000000497e+00 -8.973425615855346038e-02
5.320000000000000284e+00 -8.857796736086953615e-02
5.330000000000000071e+00 -8.743587897096727346e-02
5.339999999999999858e+00 -8.630783460165236676e-02
5.349999999999999645e+00 -8.519367786572784595e-02
5.360000000000000320e+00 -8.409325237599851732e-02
5.370000000000000107e+00 -8.300640174526829895e-02
5.380000000000000782e+00 -8.193296971131092121e-02
5.390000000000000568e+00 -8.087280487010861663e-02
5.400000000000000355e+00 -7.982576212862513287e-02
5.410000000000000142e+00 -7.879169681559883287e-02
5.419999999999999929e+00 -7.777046425976807953e-02
5.429999999999999716e+00 -7.676191978987123576e-02
5.439999999999999503e+00 -7.576591873464577631e-02
5.450000000000000178e+00 -7.478231642283050817e-02
5.459999999999999964e+00 -7.381096818316335018e-02
5.470000000000000639e+00 -7.285172934438222114e-02
5.480000000000000426e+00 -7.190445630502084740e-02
5.490000000000000213e+00 -7.096901337006311650e-02
5.500000000000000000e+00 -7.004526838818980750e-02
5.509999999999999787e+00 -6.913308922479588503e-02
5.519999999999999574e+00 -6.823234374527809010e-02
5.530000000000000249e+00 -6.734289981503138733e-02
5.540000000000000036e+00 -6.646462529945118547e-02
5.550000000000000711e+00 -6.559738806393333732e-02
5.560000000000000497e+00 -6.474105597387325162e-02
5.570000000000000284e+00 -6.389549691124196684e-02
5.580000000000000071e+00 -6.306058227184241360e-02
5.589999999999999858e+00 -6.223619129130364414e-02
5.599999999999999645e+00 -6.142220426603461902e-02
5.610000000000000320e+00 -6.061850149244429886e-02
5.620000000000000107e+00 -5.982496326694120015e-02
5.630000000000000782e+00 -5.904146988593428347e-02
5.640000000000000568e+00 -5.826790164583295351e-02
5.650000000000000355e+00 -5.750413884304528267e-02
5.660000000000000142e+00 -5.675006177398111973e-02
5.669999999999999929e+00 -5.600555112260741097e-02
5.679999999999999716e+00 -5.527049337192924128e-02
5.689999999999999503e+00 -5.454477946905811336e-02
5.700000000000000178e+00 -5.382830047593989420e-02
5.709999999999999964e+00 -5.312094745451911848e-02
5.720000000000000639e+00 -5.242261146674120909e-02
5.730000000000000426e+00 -5.173318357455158889e-02
5.740000000000000213e+00 -5.105255483989479259e-02
5.750000000000000000e+00 -5.038061632471624307e-02
5.759999999999999787e+00 -4.971725909096091911e-02
5.769999999999999574e+00 -4.906237604504015692e-02
5.780000000000000249e+00 -4.841586747122983425e-02
5.790000000000000036e+00 -4.777763549827263034e-02
5.800000000000000711e+00 -4.714758225491078036e-02
5.810000000000000497e+00 -4.652560986988651948e-02
5.820000000000000284e+00 -4.591162047194252693e-02
5.830000000000000071e+00 -4.530551618982014972e-02
5.839999999999999858e+00 -4.470719915226295527e-02
5.849999999999999645e+00 -4.411657148801273465e-02
5.860000000000000320e+00 -4.353353542823334976e-02
5.870000000000000107e+00 -4.295799718573656278e-02
5.880000000000000782e+00 -4.238986814563494576e-02
5.890000000000000568e+00 -4.182906003871389444e-02
5.900000000000000355e+00 -4.127548459575969275e-02
5.910000000000000142e+00 -4.072905354755773644e-02
5.919999999999999929e+00 -4.018967862489430942e-02
5.929999999999999716e+00 -3.965727155855525154e-02
5.939999999999999503e+00 -3.913174407932640264e-02
5.950000000000000178e+00 -3.861300791799360255e-02
5.959999999999999964e+00 -3.810097561932357380e-02
5.970000000000000639e+00 -3.759556574390909844e-02
5.980000000000000426e+00 -3.709669954865502106e-02
5.990000000000000213e+00 -3.660429830318356892e-02
6.000000000000000000e+00 -3.611828327711785747e-02
6.009999999999999787e+00 -3.563857574008011397e-02
6.019999999999999574e+00 -3.516509696169434207e-02
6.030000000000000249e+00 -3.469776821158188085e-02
6.040000000000000036e+00 -3.423651075936673394e-02
6.050000000000000711e+00 -3.378124588536435269e-02
6.060000000000000497e+00 -3.333189713697137790e-02
6.070000000000000284e+00 -3.288839311973656976e-02
6.080000000000000071e+00 -3.245066312360966876e-02
6.089999999999999858e+00 -3.201863643854219177e-02
6.099999999999999645e+00 -3.159224235448343521e-02
6.110000000000000320e+00 -3.117141016138447185e-02
6.120000000000000107e+00 -3.075606914919504220e-02
6.130000000000000782e+00 -3.034614860786577495e-02
6.140000000000000568e+00 -2.994157782734729878e-02
6.150000000000000355e+00 -2.954228637234912469e-02
6.160000000000000142e+00 -2.914820791880190498e-02
6.169999999999999929e+00 -2.875927930746158268e-02
6.179999999999999716e+00 -2.837543746049364657e-02
6.189999999999999503e+00 -2.799661930006491772e-02
6.200000000000000178e+00 -2.762276174834044085e-02
6.209999999999999964e+00 -2.725380172748748109e-02
6.220000000000000639e+00 -2.688967615967108316e-02
6.230000000000000426e+00 -2.653032196705806811e-02
6.240000000000000213e+00 -2.617567607181392475e-02
6.250000000000000000e+00 -2.582567658531820243e-02
6.259999999999999787e+00 -2.548026637579914322e-02
6.269999999999999574e+00 -2.513938950069949385e-02
6.280000000000000249e+00 -2.480299001746111287e-02
6.290000000000000036e+00 -2.447101198352585882e-02
6.300000000000000711e+00 -2.414339945633603435e-02
6.310000000000000497e+00 -2.382009649333349799e-02
6.320000000000000284e+00 -2.350104715196010829e-02
6.330000000000000071e+00 -2.318619548965772381e-02
6.339999999999999858e+00 -2.287548562693686449e-02
6.349999999999999645e+00 -2.256886413607084307e-02
6.360000000000000320e+00 -2.226628077426262564e-02
6.370000000000000107e+00 -2.196768551156891291e-02
6.380000000000000782e+00 -2.167302831804596153e-02
6.390000000000000568e+00 -2.138225916375047220e-02
6.400000000000000355e+00 -2.109532801873870156e-02
6.410000000000000142e+00 -2.081218485306779442e-02
6.419999999999999929e+00 -2.053277963679356333e-02
6.429999999999999716e+00 -2.025706233997359718e-02
6.439999999999999503e+00 -1.998498342480869994e-02
6.450000000000000178e+00 -1.971649699075994633e-02
6.459999999999999964e+00 -1.945155876751769597e-02
6.470000000000000639e+00 -1.919012449246348950e-02
6.480000000000000426e+00 -1.893214990297797939e-02
6.490000000000000213e+00 -1.867759073644137402e-02
6.500000000000000000e+00 -1.842640273023476993e-02
6.509999999999999787e+00 -1.817854162173881960e-02
