# Scan along dir: [2. 1. 0.]
# t	Energy(eV)
0.000000000000000000e+00 3.105576756081185330e+00
1.000000000000000056e-01 3.117749298698384131e+00
2.000000000000000111e-01 3.036787407345648226e+00
3.000000000000000444e-01 3.050708827351635399e+00
4.000000000000000222e-01 3.066463120484044680e+00
5.000000000000000000e-01 3.083621327107086696e+00
6.000000000000000888e-01 3.101738501951830873e+00
7.000000000000000666e-01 3.120357496265939723e+00
8.000000000000000444e-01 3.139035019018727724e+00
9.000000000000000222e-01 3.157344330382200415e+00
1.000000000000000000e+00 3.174894155144599939e+00
1.100000000000000089e+00 3.191322259578788678e+00
1.200000000000000178e+00 3.206296473128937841e+00
1.300000000000000044e+00 3.219514807106243381e+00
1.400000000000000133e+00 3.230703287206882379e+00
1.500000000000000000e+00 3.239613060892263974e+00
1.600000000000000089e+00 3.246017316161986521e+00
1.700000000000000178e+00 3.249711067105225837e+00
1.800000000000000044e+00 3.250503820115576925e+00
1.900000000000000133e+00 3.248222066990239743e+00
2.000000000000000000e+00 3.242710147848116176e+00
2.100000000000000089e+00 3.233853232230771368e+00
2.200000000000000178e+00 3.221578529279323089e+00
2.300000000000000266e+00 3.205805737281084422e+00
2.400000000000000355e+00 3.186576413924708362e+00
2.500000000000000000e+00 3.163943841815601843e+00
2.600000000000000089e+00 3.138050447285076761e+00
2.700000000000000178e+00 3.109095910361139747e+00
2.800000000000000266e+00 3.077399586718063240e+00
2.900000000000000355e+00 3.043407064385272864e+00
3.000000000000000000e+00 3.007700398377832762e+00
3.100000000000000089e+00 2.971011893691769323e+00
3.200000000000000178e+00 2.934222824645545291e+00
3.300000000000000266e+00 2.898326466907060972e+00
3.400000000000000355e+00 2.864353646556753397e+00
3.500000000000000000e+00 2.833290832867768838e+00
3.600000000000000089e+00 2.806001586788982483e+00
3.700000000000000178e+00 2.783162632577725226e+00
3.800000000000000266e+00 2.765266261602499220e+00
3.900000000000000355e+00 2.752599552648633541e+00
4.000000000000000000e+00 2.745305351629437229e+00
4.100000000000000533e+00 2.743362179231380260e+00
4.200000000000000178e+00 2.746599993018195462e+00
4.299999999999999822e+00 2.754763465337062733e+00
4.400000000000000355e+00 2.767446316720787003e+00
4.500000000000000000e+00 2.784191193101257955e+00
4.600000000000000533e+00 2.804471321286342356e+00
4.700000000000000178e+00 2.827727539878096330e+00
4.800000000000000711e+00 2.853390314970043029e+00
4.900000000000000355e+00 2.880913760640386290e+00
5.000000000000000000e+00 2.909757574892173349e+00
5.100000000000000533e+00 2.939401576896215396e+00
5.200000000000000178e+00 2.969365796677560176e+00
5.300000000000000711e+00 2.999198163572603271e+00
5.400000000000000355e+00 3.028474824712078295e+00
5.500000000000000000e+00 3.056801378614192100e+00
5.600000000000000533e+00 3.083817818411896283e+00
5.700000000000000178e+00 3.109176257127808096e+00
5.800000000000000711e+00 3.132554723738451674e+00
5.900000000000000355e+00 3.153674521919404228e+00
6.000000000000000000e+00 3.172264735348792719e+00
6.100000000000000533e+00 3.188096789294668554e+00
6.200000000000000178e+00 3.200972211183648497e+00
6.300000000000000711e+00 3.210733825875229819e+00
6.400000000000000355e+00 3.217257191577511222e+00
6.500000000000000000e+00 3.220456518061609597e+00
6.600000000000000533e+00 3.220300317775940613e+00
6.700000000000000178e+00 3.216807779890072716e+00
6.800000000000000711e+00 3.210046009913047449e+00
6.900000000000000355e+00 3.200143451193247834e+00
7.000000000000000000e+00 3.187304791423109407e+00
7.100000000000000533e+00 3.171776388446401196e+00
7.200000000000000178e+00 3.153877037828153096e+00
7.300000000000000711e+00 3.134002271614931168e+00
7.400000000000000355e+00 3.112711105539417211e+00
7.500000000000000000e+00 3.090750080506239339e+00
7.600000000000000533e+00 3.068871793131463299e+00
7.700000000000000178e+00 3.047761287576236988e+00
7.800000000000000711e+00 3.028053947510904287e+00
7.900000000000000355e+00 3.010386446696958096e+00
8.000000000000000000e+00 2.995340008826535616e+00
8.099999999999999645e+00 2.983363601324827474e+00
8.200000000000001066e+00 2.974752409177483958e+00
8.300000000000000711e+00 2.969676668661020535e+00
8.400000000000000355e+00 2.968176221892248279e+00
8.500000000000000000e+00 2.970179822826958027e+00
8.599999999999999645e+00 2.975535930690257125e+00
8.700000000000001066e+00 2.984006410515049001e+00
8.800000000000000711e+00 2.995277953314980479e+00
8.900000000000000355e+00 3.008985480675005153e+00
9.000000000000000000e+00 3.024708257532408240e+00
9.099999999999999645e+00 3.041993031712553641e+00
9.200000000000001066e+00 3.060361178630272683e+00
9.300000000000000711e+00 3.079323933680254477e+00
9.400000000000000355e+00 3.098406270886630232e+00
9.500000000000000000e+00 3.117119813140749152e+00
9.600000000000001421e+00 3.135035328240032282e+00
9.700000000000001066e+00 3.151731516820357903e+00
9.800000000000000711e+00 3.166827996584986593e+00
9.900000000000000355e+00 3.179973302390050272e+00
1.000000000000000000e+01 3.190840110011648356e+00
1.010000000000000142e+01 3.199089135938320005e+00
1.020000000000000107e+01 3.204004905037129980e+00
1.030000000000000071e+01 3.109993616860743160e+00
1.040000000000000036e+01 3.095362728211396242e+00
1.050000000000000000e+01 3.082088980641908726e+00
1.060000000000000142e+01 3.070589119343065221e+00
1.070000000000000107e+01 3.060457673103151865e+00
1.080000000000000071e+01 3.051715626350692379e+00
1.090000000000000036e+01 3.044362299037056019e+00
1.100000000000000000e+01 3.038366941887602479e+00
1.110000000000000142e+01 3.033663244973002993e+00
1.120000000000000107e+01 3.030166352568162136e+00
1.130000000000000071e+01 3.027783045739422363e+00
1.140000000000000036e+01 3.026411680396047910e+00
1.150000000000000000e+01 3.025970098939373187e+00
1.160000000000000142e+01 3.026378400021977555e+00
1.170000000000000107e+01 3.027571123439499079e+00
1.180000000000000071e+01 3.029502904659445051e+00
1.190000000000000036e+01 3.032137402192538023e+00
1.200000000000000000e+01 3.035444869355537367e+00
1.210000000000000142e+01 3.039396734498026831e+00
1.220000000000000107e+01 3.043951351903560809e+00
1.230000000000000071e+01 3.049049856439013606e+00
1.240000000000000036e+01 3.054610472974054858e+00
1.250000000000000000e+01 3.060528004331506402e+00
1.260000000000000142e+01 3.066659992888255193e+00
1.270000000000000107e+01 3.072873742564034227e+00
1.280000000000000071e+01 3.078993843764614713e+00
1.290000000000000036e+01 3.084881158641470833e+00
1.300000000000000000e+01 3.090392595722171176e+00
1.310000000000000142e+01 3.095409283501296738e+00
1.320000000000000107e+01 3.099840845859876737e+00
1.330000000000000071e+01 3.103629009060936195e+00
1.340000000000000036e+01 3.106748816250758605e+00
1.350000000000000000e+01 3.109200982207666719e+00
1.360000000000000142e+01 3.111011576505470444e+00
1.370000000000000107e+01 3.112224784409997280e+00
1.380000000000000071e+01 3.112897416354661217e+00
1.390000000000000036e+01 3.113101960585812122e+00
1.400000000000000000e+01 3.112920350764288635e+00
1.410000000000000142e+01 3.112442620810146998e+00
1.420000000000000107e+01 3.111770557338484622e+00
1.430000000000000071e+01 3.111009204241220516e+00
1.440000000000000036e+01 3.110282256418219315e+00
1.450000000000000000e+01 3.109699924443315666e+00
1.460000000000000142e+01 3.109349103249130053e+00
1.470000000000000107e+01 3.109299065815143592e+00
1.480000000000000071e+01 3.109557180417348743e+00
1.490000000000000036e+01 3.033229403707457639e+00
1.500000000000000000e+01 3.030765502607946082e+00
1.510000000000000142e+01 3.029380808706876760e+00
1.520000000000000107e+01 3.029146013007425253e+00
1.530000000000000071e+01 3.030120547865965630e+00
1.540000000000000036e+01 3.032343947612669677e+00
1.550000000000000000e+01 3.035831607557252454e+00
1.560000000000000142e+01 3.040578372217598968e+00
1.570000000000000107e+01 3.046560712891002609e+00
1.580000000000000071e+01 3.053734478740149250e+00
1.590000000000000036e+01 3.062048505794253028e+00
1.600000000000000000e+01 3.071434580882825838e+00
1.610000000000000142e+01 3.081804838610159969e+00
1.619999999999999929e+01 3.093027452188840787e+00
1.630000000000000071e+01 3.104695210222400803e+00
1.640000000000000213e+01 2.983797738400983945e+00
1.650000000000000000e+01 2.995045485830000409e+00
1.660000000000000142e+01 3.007686042780181701e+00
1.669999999999999929e+01 3.021464271552267267e+00
1.680000000000000071e+01 3.036036699789171678e+00
1.690000000000000213e+01 3.051105035096420615e+00
1.700000000000000000e+01 3.066359154153075472e+00
1.710000000000000142e+01 3.081413434651430361e+00
1.719999999999999929e+01 3.095999250692330396e+00
1.730000000000000071e+01 3.109780890415062782e+00
1.740000000000000213e+01 3.122482561600029793e+00
1.750000000000000000e+01 3.133858384204877279e+00
1.760000000000000142e+01 3.143697621405301401e+00
1.769999999999999929e+01 3.151833835170614329e+00
1.780000000000000071e+01 3.158128837718938264e+00
1.790000000000000213e+01 3.162408891333429839e+00
1.800000000000000000e+01 3.164748464863283761e+00
1.810000000000000142e+01 3.165299745490616878e+00
1.819999999999999929e+01 3.164206670962375956e+00
1.830000000000000071e+01 3.161638027819269059e+00
1.840000000000000213e+01 3.157773621898487981e+00
1.850000000000000000e+01 3.152793606487535261e+00
1.860000000000000142e+01 3.146881074484215723e+00
1.869999999999999929e+01 3.140224081357344321e+00
1.880000000000000071e+01 3.132991060777980508e+00
1.890000000000000213e+01 3.125357300427532792e+00
1.900000000000000000e+01 3.117497883534878333e+00
1.910000000000000142e+01 3.109539222714125639e+00
1.920000000000000284e+01 3.101586271807485140e+00
1.930000000000000071e+01 3.093664023690058329e+00
1.940000000000000213e+01 3.085540201488248702e+00
1.950000000000000000e+01 3.076105357722926925e+00
1.960000000000000142e+01 3.065053409676027130e+00
1.970000000000000284e+01 3.055577315913462932e+00
1.980000000000000071e+01 3.047604378551092008e+00
1.990000000000000213e+01 3.041020217277819349e+00
2.000000000000000000e+01 3.035754158328546559e+00
2.010000000000000142e+01 3.031718263192294316e+00
2.020000000000000284e+01 3.028831881605499099e+00
2.030000000000000071e+01 3.026998401904338998e+00
2.040000000000000213e+01 3.026130519991217405e+00
2.050000000000000000e+01 3.026152052129464920e+00
2.060000000000000142e+01 3.026984044535314666e+00
2.070000000000000284e+01 3.028580976491286769e+00
2.080000000000000071e+01 3.030898753195207185e+00
2.090000000000000213e+01 3.033905900603661276e+00
2.100000000000000000e+01 3.037573631946188346e+00
2.110000000000000142e+01 3.041865795861650845e+00
2.120000000000000284e+01 3.046731609360115556e+00
2.130000000000000071e+01 3.052098954680195764e+00
2.140000000000000213e+01 3.057870769785675513e+00
2.150000000000000000e+01 3.063928671102380541e+00
2.160000000000000142e+01 3.070120904460741151e+00
2.170000000000000284e+01 3.076306345172620915e+00
2.180000000000000071e+01 3.082313813082622200e+00
2.190000000000000213e+01 3.088007138417602881e+00
2.200000000000000000e+01 3.093255727452057791e+00
2.210000000000000142e+01 3.097955374659221661e+00
2.220000000000000284e+01 3.102033327840403754e+00
2.230000000000000071e+01 3.105449321268435092e+00
2.240000000000000213e+01 3.108196123433939917e+00
2.250000000000000000e+01 3.110286495425657716e+00
2.260000000000000142e+01 3.111757609359639076e+00
2.270000000000000284e+01 3.112660327483254274e+00
2.280000000000000071e+01 3.113063868315897764e+00
2.290000000000000213e+01 3.113041540487777148e+00
2.300000000000000000e+01 3.112682667872036291e+00
2.310000000000000142e+01 3.112083859938294506e+00
2.320000000000000284e+01 3.111345064639244651e+00
2.330000000000000071e+01 3.110585546899934606e+00
2.340000000000000213e+01 3.109924839323598977e+00
2.350000000000000000e+01 3.109465461070735071e+00
2.360000000000000142e+01 3.109284637986120536e+00
2.370000000000000284e+01 3.109426568680822900e+00
2.380000000000000071e+01 3.034635381242381413e+00
2.390000000000000213e+01 3.031725400450775876e+00
2.400000000000000000e+01 3.029854503112737518e+00
2.410000000000000142e+01 3.029102766577736805e+00
2.420000000000000284e+01 3.029535399665798767e+00
2.430000000000000071e+01 3.031203150137476321e+00
2.440000000000000213e+01 3.034130862457571798e+00
2.450000000000000000e+01 3.038323018137548015e+00
2.460000000000000142e+01 3.043762326921060080e+00
2.470000000000000284e+01 3.050416926127854644e+00
2.480000000000000071e+01 3.058230803413204857e+00
2.490000000000000213e+01 3.067152289519821995e+00
2.500000000000000000e+01 3.077098369592468963e+00
2.510000000000000142e+01 3.087966187254969075e+00
2.520000000000000284e+01 3.099547789531025721e+00
2.530000000000000071e+01 2.979311558811946092e+00
2.540000000000000213e+01 2.989870885861553695e+00
2.550000000000000000e+01 3.001930739063487508e+00
2.560000000000000142e+01 3.015251102247389792e+00
2.570000000000000284e+01 3.029501494346204193e+00
2.580000000000000071e+01 3.044392030082443856e+00
2.590000000000000213e+01 3.059609270118302859e+00
2.600000000000000000e+01 3.074781712013955115e+00
2.610000000000000142e+01 3.089625545958055497e+00
2.620000000000000284e+01 3.103798452749902292e+00
2.630000000000000071e+01 3.117009956743628685e+00
2.640000000000000213e+01 3.129000317909703011e+00
2.650000000000000000e+01 3.139541454447732249e+00
2.660000000000000142e+01 3.148450923378762312e+00
2.670000000000000284e+01 3.155578831156051312e+00
2.680000000000000071e+01 3.160768332700200300e+00
2.690000000000000213e+01 3.163940854932741686e+00
2.700000000000000000e+01 3.165267049480519290e+00
2.710000000000000142e+01 3.164882434047273208e+00
2.720000000000000284e+01 3.162945524911568995e+00
2.730000000000000071e+01 3.159633874418040111e+00
2.740000000000000213e+01 3.155125358603032559e+00
2.750000000000000000e+01 3.149603091724287651e+00
2.760000000000000142e+01 3.143244934561263193e+00
2.770000000000000284e+01 3.136248998689603162e+00
2.780000000000000071e+01 3.128777310463116468e+00
2.790000000000000213e+01 3.120995559477877990e+00
2.800000000000000000e+01 3.113066362663619913e+00
2.810000000000000142e+01 3.105101292371631239e+00
2.820000000000000284e+01 3.097172557147682692e+00
2.830000000000000071e+01 3.089199184278048627e+00
2.840000000000000213e+01 3.080587104514306063e+00
2.850000000000000000e+01 3.069818711869169992e+00
2.860000000000000142e+01 3.059574491898179094e+00
2.870000000000000284e+01 3.050957875577235079e+00
2.880000000000000071e+01 3.043767819677182906e+00
2.890000000000000213e+01 3.037927654715308456e+00
2.900000000000000000e+01 3.033357772524058138e+00
2.910000000000000142e+01 3.029971614354539433e+00
2.920000000000000284e+01 3.027678098507523341e+00
2.930000000000000071e+01 3.026396612766810268e+00
2.940000000000000213e+01 3.026036279755370817e+00
2.950000000000000000e+01 3.026518187005130756e+00
2.960000000000000142e+01 3.027785171971579814e+00
2.970000000000000284e+01 3.029786640819767118e+00
2.980000000000000071e+01 3.032491947326411807e+00
2.990000000000000213e+01 3.035870935978152829e+00
3.000000000000000000e+01 3.039891705559899737e+00
3.010000000000000142e+01 3.044510875212735890e+00
3.020000000000000284e+01 3.049665936425882684e+00
3.030000000000000071e+01 3.055272898947865912e+00
3.040000000000000213e+01 3.061222758550539158e+00
3.050000000000000000e+01 3.067370390798179081e+00
3.060000000000000142e+01 3.073582721349904290e+00
3.070000000000000284e+01 3.079682802972746103e+00
3.080000000000000071e+01 3.085533832705634527e+00
3.090000000000000213e+01 3.090994189355585231e+00
3.100000000000000000e+01 3.095947817503734267e+00
3.110000000000000142e+01 3.100308460686342471e+00
3.120000000000000284e+01 3.104020832301615407e+00
3.130000000000000071e+01 3.107063361022759818e+00
3.140000000000000213e+01 3.109440306073123494e+00
3.150000000000000000e+01 3.111179861617380915e+00
3.160000000000000142e+01 3.112328432758756147e+00
3.170000000000000284e+01 3.112944418702391580e+00
3.180000000000000071e+01 3.113100396177996387e+00
3.190000000000000213e+01 3.112880171663206852e+00
3.200000000000000000e+01 3.112374927075945763e+00
3.210000000000000142e+01 3.111687314123158909e+00
3.220000000000000284e+01 3.110924192535790667e+00
3.230000000000000426e+01 3.110207960474784095e+00
3.239999999999999858e+01 3.109647453353856505e+00
3.250000000000000000e+01 3.109327106542485453e+00
3.260000000000000142e+01 3.109311245130075729e+00
3.270000000000000284e+01 3.109594474026437183e+00
3.280000000000000426e+01 3.032896300635433917e+00
3.289999999999999858e+01 3.030551281992909907e+00
3.300000000000000000e+01 3.029293658875802375e+00
3.310000000000000142e+01 3.029194891866003658e+00
3.320000000000000284e+01 3.030310683742568845e+00
3.330000000000000426e+01 3.032679017407349686e+00
3.339999999999999858e+01 3.036311332041276678e+00
3.350000000000000000e+01 3.041200780887827193e+00
3.360000000000000142e+01 3.047322712028769587e+00
3.370000000000000284e+01 3.054630137587058147e+00
3.380000000000000426e+01 3.063071007537189860e+00
3.389999999999999858e+01 3.072574863997523664e+00
3.400000000000000000e+01 3.083050049906586931e+00
3.410000000000000142e+01 3.094356826869979926e+00
3.420000000000000284e+01 3.105891523915039087e+00
3.430000000000000426e+01 2.985010456634836995e+00
3.439999999999999858e+01 2.996429333131897188e+00
3.450000000000000000e+01 3.009211983382269029e+00
3.460000000000000142e+01 3.023099096680729847e+00
3.470000000000000284e+01 3.037744259831192561e+00
3.480000000000000426e+01 3.052847724087525805e+00
3.489999999999999858e+01 3.068099076507702527e+00
3.500000000000000000e+01 3.083113403680040943e+00
3.510000000000000142e+01 3.097622810818695616e+00
3.520000000000000284e+01 3.111294496750639293e+00
3.530000000000000426e+01 3.123856313374050231e+00
3.539999999999999858e+01 3.135066811130379882e+00
3.550000000000000000e+01 3.144719326418544014e+00
3.560000000000000142e+01 3.152651646251704243e+00
3.570000000000000284e+01 3.158725491367877058e+00
3.580000000000000426e+01 3.162771951076243315e+00
3.589999999999999858e+01 3.164899949243787702e+00
3.600000000000000000e+01 3.165254598364766636e+00
3.610000000000000142e+01 3.163982874641610987e+00
3.620000000000000284e+01 3.161258328350681435e+00
3.630000000000000426e+01 3.157257316115610113e+00
3.639999999999999858e+01 3.152166809691345328e+00
3.650000000000000000e+01 3.146150002922891264e+00
3.660000000000000142e+01 3.139419279069983304e+00
3.670000000000000284e+01 3.132150389124174872e+00
3.680000000000000426e+01 3.124474120880809558e+00
3.689999999999999858e+01 3.116589756746190432e+00
3.700000000000000000e+01 3.108625459074788822e+00
3.710000000000000142e+01 3.100678100516923941e+00
3.720000000000000284e+01 3.092753166582844493e+00
3.730000000000000426e+01 3.084564124854130007e+00
3.739999999999999858e+01 3.074844029947821689e+00
3.750000000000000000e+01 3.063882735906381161e+00
3.760000000000000142e+01 3.054590944746662373e+00
3.770000000000000284e+01 3.046780768427393760e+00
3.780000000000000426e+01 3.040351340385951673e+00
3.789999999999999858e+01 3.035231011010315783e+00
3.800000000000000000e+01 3.031330050583846081e+00
3.810000000000000142e+01 3.028568571674002285e+00
3.820000000000000284e+01 3.026851064520106327e+00
3.830000000000000426e+01 3.026089247887803868e+00
3.840000000000000568e+01 3.026202614337730523e+00
3.850000000000000000e+01 3.027126150038138341e+00
3.860000000000000142e+01 3.028808838847199425e+00
3.870000000000000284e+01 3.031207831394645780e+00
3.880000000000000426e+01 3.034292640032153265e+00
3.890000000000000568e+01 3.038034058243340496e+00
3.900000000000000000e+01 3.042395024881414223e+00
3.910000000000000142e+01 3.047322471776910291e+00
3.920000000000000284e+01 3.052741521978935779e+00
3.930000000000000426e+01 3.058556321079574758e+00
3.940000000000000568e+01 3.064631456648918117e+00
3.950000000000000000e+01 3.070836567784653859e+00
3.960000000000000142e+01 3.077002267606220087e+00
3.970000000000000284e+01 3.082984339785452832e+00
3.980000000000000426e+01 3.088632970790966326e+00
