# ts	Energy
2.600000000000000089e+00 -3.466023248910587995e-02
2.700000000000000178e+00 -4.003681601928565925e-01
2.800000000000000266e+00 -6.400689205428147233e-01
2.900000000000000355e+00 -7.864650540938993295e-01
3.000000000000000000e+00 -8.646686033527508641e-01
3.100000000000000089e+00 -8.939653776026337262e-01
3.200000000000000178e+00 -8.889237792150783690e-01
3.300000000000000266e+00 -8.605682143596440348e-01
3.400000000000000355e+00 -8.170555912797290432e-01
3.500000000000000000e+00 -7.644461120589713943e-01
3.600000000000000089e+00 -7.070909444135806687e-01
3.700000000000000178e+00 -6.481396746118037733e-01
3.800000000000000266e+00 -5.897434798865810457e-01
3.900000000000000355e+00 -5.333920349566549923e-01
4.000000000000000000e+00 -4.800061546156939585e-01
4.099999999999999645e+00 -4.301615595974190853e-01
4.200000000000000178e+00 -3.841183802007295256e-01
4.300000000000000711e+00 -3.419748954792565243e-01
4.400000000000000355e+00 -3.036595843018958796e-01
4.500000000000000000e+00 -2.690431181237231684e-01
4.599999999999999645e+00 -2.379055645264047669e-01
4.700000000000000178e+00 -2.100242075436060674e-01
4.800000000000000711e+00 -1.851318170565936505e-01
4.900000000000000355e+00 -1.629851088984302088e-01
5.000000000000000000e+00 -1.433196469640116710e-01
5.099999999999999645e+00 -1.259054550380955817e-01
5.200000000000000178e+00 -1.105038896328220943e-01
5.300000000000000711e+00 -9.691378502868674971e-02
5.400000000000000355e+00 -8.493023942265365278e-02
5.500000000000000000e+00 -7.438558611761125761e-02
5.599999999999999645e+00 -6.510859662856605112e-02
5.700000000000000178e+00 -5.696299197419962823e-02
5.800000000000000711e+00 -4.980918460973615680e-02
5.900000000000000355e+00 -4.353883153896287439e-02
6.000000000000000000e+00 -3.803946705127669858e-02
6.099999999999999645e+00 -3.322614681671831605e-02
6.200000000000000178e+00 -2.900917030844540889e-02
6.300000000000000711e+00 -2.532269467239345317e-02
6.400000000000000355e+00 -2.209547247940513159e-02
6.500000000000000000e+00 -1.927729681025258657e-02
6.599999999999999645e+00 -1.681158319097608711e-02
6.700000000000001066e+00 -1.466051320054173601e-02
6.800000000000000711e+00 -1.277938626196695182e-02
6.900000000000000355e+00 -1.113994254369643500e-02
7.000000000000000000e+00 -9.706368307071056023e-03
7.099999999999999645e+00 -8.457990186689023915e-03
7.200000000000001066e+00 -7.366491817215159443e-03
7.300000000000000711e+00 -6.416942624628330094e-03
7.400000000000000355e+00 -5.586989459747560005e-03
7.500000000000000000e+00 -4.865581319866585375e-03
7.599999999999999645e+00 -4.234569225159301453e-03
7.700000000000001066e+00 -3.686850529863061610e-03
7.800000000000000711e+00 -3.207791482674249295e-03
7.900000000000000355e+00 -2.792393551582339484e-03
8.000000000000000000e+00 -2.428670278558087148e-03
8.099999999999999645e+00 -2.113765157954805574e-03
8.200000000000001066e+00 -1.837928315923775813e-03
8.300000000000000711e+00 -1.599531557495925682e-03
8.400000000000000355e+00 -1.390281802362114405e-03
8.500000000000000000e+00 -1.209770520844255515e-03
8.599999999999999645e+00 -1.051204181515608127e-03
8.700000000000001066e+00 -9.147557203674772097e-04
8.800000000000000711e+00 -7.945271104907725146e-04
8.900000000000000355e+00 -6.913194114255283296e-04
9.000000000000000000e+00 -6.001344840957933968e-04
9.099999999999999645e+00 -5.221714573573343898e-04
9.200000000000001066e+00 -4.530300203238191159e-04
9.300000000000000711e+00 -3.941678256804692637e-04
9.400000000000000355e+00 -3.417364831141966874e-04
9.500000000000000000e+00 -2.974690310568739449e-04
9.599999999999999645e+00 -2.578313624534978032e-04
9.700000000000001066e+00 -2.246326611516913374e-04
9.800000000000000711e+00 -1.946293255539188749e-04
9.900000000000000355e+00 -1.696477234034432513e-04
1.000000000000000000e+01 -1.469252057511027942e-04
1.009999999999999964e+01 -1.279632468391689315e-04
1.020000000000000107e+01 -1.102752315014221551e-04
1.030000000000000071e+01 -9.598231533036738483e-05
1.040000000000000036e+01 -8.273341435405257016e-05
1.050000000000000000e+01 -7.235771074798336144e-05
1.059999999999999964e+01 -6.250934558771348293e-05
1.069999999999999929e+01 -5.477838116840771931e-05
1.080000000000000071e+01 -4.700583841721339695e-05
1.090000000000000036e+01 -4.115246284097651142e-05
1.100000000000000000e+01 -3.517822408127813105e-05
1.109999999999999964e+01 -3.085511200762169892e-05
1.119999999999999929e+01 -2.627900778584546515e-05
1.130000000000000071e+01 -2.305185093298689480e-05
1.140000000000000036e+01 -1.944349909255294051e-05
1.150000000000000000e+01 -1.700830106088346838e-05
1.159999999999999964e+01 -1.413439346897860105e-05
1.169999999999999929e+01 -1.250359140803070090e-05
1.180000000000000071e+01 -1.036601750836751989e-05
1.190000000000000036e+01 -9.285236485023773412e-06
1.200000000000000000e+01 -7.616050623049375190e-06
1.209999999999999964e+01 -6.922161989830755147e-06
1.220000000000000107e+01 -5.730079815968736057e-06
1.230000000000000071e+01 -5.302744140678328222e-06
1.240000000000000036e+01 -4.258630274200925214e-06
1.250000000000000000e+01 -3.926392206921036632e-06
1.259999999999999964e+01 -3.061958583128188138e-06
1.270000000000000107e+01 -2.956743429205488383e-06
1.280000000000000071e+01 -2.240567826383710326e-06
1.290000000000000036e+01 -2.246012273499076173e-06
1.300000000000000000e+01 -1.701899461359346333e-06
1.309999999999999964e+01 -1.761375493458672281e-06
1.320000000000000107e+01 -1.220796325362982770e-06
1.330000000000000071e+01 -1.221201897383394908e-06
1.340000000000000036e+01 -7.035364810725752704e-07
1.350000000000000000e+01 -8.557228907690728192e-07
1.359999999999999964e+01 -4.112566860392519175e-07
1.370000000000000107e+01 -6.211078611428888507e-07
1.380000000000000071e+01 -3.931016960834199381e-07
1.390000000000000036e+01 -6.610685998609255876e-07
1.400000000000000000e+01 -4.991213602423272278e-07
1.409999999999999964e+01 -7.472817489251326606e-07
1.420000000000000107e+01 -4.296902251788026206e-07
1.430000000000000071e+01 -6.576076612141434907e-07
1.440000000000000036e+01 -3.125760015265655056e-07
1.450000000000000000e+01 -3.434613766728489281e-07
1.459999999999999964e+01 1.338053445820719389e-08
1.470000000000000107e+01 -1.487419503121145681e-07
1.480000000000000071e+01 5.705226824304077127e-08
1.490000000000000036e+01 -1.877263309246757217e-07
1.500000000000000000e+01 0.000000000000000000e+00
