# Scan along dir: [2. 1. 0.]
# t	Energy(eV)
0.000000000000000000e+00 -1.955887338999269254e-01
1.000000000000000056e-01 -1.800152718600669388e-01
2.000000000000000111e-01 -1.606140535219471310e-01
3.000000000000000444e-01 -1.379428944608642738e-01
4.000000000000000222e-01 -1.126293147118726523e-01
5.000000000000000000e-01 -8.534252292280619656e-02
6.000000000000000888e-01 -5.679707058985528079e-02
7.000000000000000666e-01 -2.769918969335938286e-02
8.000000000000000444e-01 1.224572638193421881e-03
9.000000000000000222e-01 2.929123763957086624e-02
1.000000000000000000e+00 5.588099646726618630e-02
1.100000000000000089e+00 8.046832252620861325e-02
1.200000000000000178e+00 1.025876282097515357e-01
1.300000000000000044e+00 1.218371280615659913e-01
1.400000000000000133e+00 1.378737229898203687e-01
1.500000000000000000e+00 1.504126362096824820e-01
1.600000000000000089e+00 1.592362634881538952e-01
1.700000000000000178e+00 1.642002669783568791e-01
1.800000000000000044e+00 1.652436645045138874e-01
1.900000000000000133e+00 1.623930087294676028e-01
2.000000000000000000e+00 1.557740370195945800e-01
2.100000000000000089e+00 7.606102357001542913e-02
2.200000000000000178e+00 7.819257321968642316e-02
2.300000000000000266e+00 8.086680224594955391e-02
2.400000000000000355e+00 8.400830705708184354e-02
2.500000000000000000e+00 8.752081876759065793e-02
2.600000000000000089e+00 9.129650501247521532e-02
2.700000000000000178e+00 9.519359991516740394e-02
2.800000000000000266e+00 9.908393626110933994e-02
2.900000000000000355e+00 1.028072922489080554e-01
3.000000000000000000e+00 1.062186659066162164e-01
3.100000000000000089e+00 1.091846247993442098e-01
3.200000000000000178e+00 1.116190469802393892e-01
3.300000000000000266e+00 1.134738536289279232e-01
3.400000000000000355e+00 1.147400622661765013e-01
3.500000000000000000e+00 1.154630643826273229e-01
3.600000000000000089e+00 1.157725032548619915e-01
3.700000000000000178e+00 1.158668868302257238e-01
3.800000000000000266e+00 1.159592268423446093e-01
3.900000000000000355e+00 1.162246337803116703e-01
4.000000000000000000e+00 1.167681529635951065e-01
4.100000000000000533e+00 1.176295991808116170e-01
4.200000000000000178e+00 1.187775211591635127e-01
4.299999999999999822e+00 1.201089798031760303e-01
4.400000000000000355e+00 1.214015330231532630e-01
4.500000000000000000e+00 1.220467463354619753e-01
4.600000000000000533e+00 9.415068708622031934e-02
4.700000000000000178e+00 9.141157863579030263e-02
4.800000000000000711e+00 8.920850575953576111e-02
4.900000000000000355e+00 8.683619520893071098e-02
5.000000000000000000e+00 8.472251688841980766e-02
5.100000000000000533e+00 8.324762173254329767e-02
5.200000000000000178e+00 8.257771293196825013e-02
5.300000000000000711e+00 8.275517574503110652e-02
5.400000000000000355e+00 8.376699959800060213e-02
5.500000000000000000e+00 8.553993114769165018e-02
5.600000000000000533e+00 8.797354300774529179e-02
5.700000000000000178e+00 9.095925575473273739e-02
5.800000000000000711e+00 9.436332860764373720e-02
5.900000000000000355e+00 9.800415840463605477e-02
6.000000000000000000e+00 1.016439612812445326e-01
6.100000000000000533e+00 1.051280196919561760e-01
6.200000000000000178e+00 1.083434769471414150e-01
6.300000000000000711e+00 1.111825992665571583e-01
6.400000000000000355e+00 1.135634395131339680e-01
6.500000000000000000e+00 1.154358149335728001e-01
6.600000000000000533e+00 1.167818283217676445e-01
6.700000000000000178e+00 1.176114251469448924e-01
6.800000000000000711e+00 1.179529323560699616e-01
6.900000000000000355e+00 1.178474555674702273e-01
7.000000000000000000e+00 1.173436068212829753e-01
7.100000000000000533e+00 1.164897807764102566e-01
7.200000000000000178e+00 1.153294095506929295e-01
7.300000000000000711e+00 1.139009791184792952e-01
7.400000000000000355e+00 1.122348552301959401e-01
7.500000000000000000e+00 1.103460172140118267e-01
7.600000000000000533e+00 1.082207266941779267e-01
7.700000000000000178e+00 1.057323359935762319e-01
7.800000000000000711e+00 6.298727361720013462e-02
7.900000000000000355e+00 5.480020717050138046e-02
8.000000000000000000e+00 4.707787068526103624e-02
8.099999999999999645e+00 3.988975517045867392e-02
8.200000000000001066e+00 3.329299535795460230e-02
8.300000000000000711e+00 2.735700227713877553e-02
8.400000000000000355e+00 2.212735755884054356e-02
8.500000000000000000e+00 1.767545114388369143e-02
8.599999999999999645e+00 1.404495100549452147e-02
8.700000000000001066e+00 1.128605075378841249e-02
8.800000000000000711e+00 9.443812733305634310e-03
8.900000000000000355e+00 8.573296204607672166e-03
9.000000000000000000e+00 8.709507329877297366e-03
9.099999999999999645e+00 9.890804011905007798e-03
9.200000000000001066e+00 1.216604455561220988e-02
9.300000000000000711e+00 1.556225115609422005e-02
9.400000000000000355e+00 2.008325349980122354e-02
9.500000000000000000e+00 2.574379822230721260e-02
9.600000000000001421e+00 3.253340167391272075e-02
9.700000000000001066e+00 4.040706951140160541e-02
9.800000000000000711e+00 4.931076570652681568e-02
9.900000000000000355e+00 5.914200160209492907e-02
1.000000000000000000e+01 6.976902957780595216e-02
1.010000000000000142e+01 8.103005682590236347e-02
1.020000000000000107e+01 9.275258050532286802e-02
1.030000000000000071e+01 1.047186845503800257e-01
1.040000000000000036e+01 1.162443327861151232e-01
1.050000000000000000e+01 7.799572215288552712e-02
1.060000000000000142e+01 7.759233879497084985e-02
1.070000000000000107e+01 7.761044399565930618e-02
1.080000000000000071e+01 7.792750677261484071e-02
1.090000000000000036e+01 7.873499681519202653e-02
1.100000000000000000e+01 8.011037765120399001e-02
1.110000000000000142e+01 8.207373094264447388e-02
1.120000000000000107e+01 8.458712191278161541e-02
1.130000000000000071e+01 8.760567407378694327e-02
1.140000000000000036e+01 9.103968812702767366e-02
1.150000000000000000e+01 9.478290737432715218e-02
1.160000000000000142e+01 9.872224120426498217e-02
1.170000000000000107e+01 1.027090824736829333e-01
1.180000000000000071e+01 1.066124818932903118e-01
1.190000000000000036e+01 1.102850033361519877e-01
1.200000000000000000e+01 1.135732152208057677e-01
1.210000000000000142e+01 1.163791806675851248e-01
1.220000000000000107e+01 1.186367147054090410e-01
1.230000000000000071e+01 1.203177395999883714e-01
1.240000000000000036e+01 1.214376171247937286e-01
1.250000000000000000e+01 1.220804779597552958e-01
1.260000000000000142e+01 1.224137263554130328e-01
1.270000000000000107e+01 1.226509569300699987e-01
1.280000000000000071e+01 1.229888632497297962e-01
1.290000000000000036e+01 1.235689925235732289e-01
1.300000000000000000e+01 1.244619982267245462e-01
1.310000000000000142e+01 1.256721771732340898e-01
1.320000000000000107e+01 1.271358118790848479e-01
1.330000000000000071e+01 1.287020961108087391e-01
1.340000000000000036e+01 1.300445247602790566e-01
1.350000000000000000e+01 1.051870715259295430e-01
1.360000000000000142e+01 1.025829318816287028e-01
1.370000000000000107e+01 1.004975634428459941e-01
1.380000000000000071e+01 9.814181817210831937e-02
1.390000000000000036e+01 9.593131350346562058e-02
1.400000000000000000e+01 9.427249614080857043e-02
1.410000000000000142e+01 9.338815506276176848e-02
1.420000000000000107e+01 9.336292930632605902e-02
1.430000000000000071e+01 9.419555241692645353e-02
1.440000000000000036e+01 9.582185324290648509e-02
1.450000000000000000e+01 9.817984792958522888e-02
1.460000000000000142e+01 1.011531618467982341e-01
1.470000000000000107e+01 1.046154564859316238e-01
1.480000000000000071e+01 1.083988537799980278e-01
1.490000000000000036e+01 1.122921262124370045e-01
1.500000000000000000e+01 1.160861052420281148e-01
1.510000000000000142e+01 1.196759529468294225e-01
1.520000000000000107e+01 1.229401937326519700e-01
1.530000000000000071e+01 1.257850592766640574e-01
1.540000000000000036e+01 1.281477825646248903e-01
1.550000000000000000e+01 1.299960982400127918e-01
1.560000000000000142e+01 1.313311271091923693e-01
1.570000000000000107e+01 1.321740983378307810e-01
1.580000000000000071e+01 1.325607535244119894e-01
1.590000000000000036e+01 1.325391140550733482e-01
1.600000000000000000e+01 1.321587753177366764e-01
1.610000000000000142e+01 1.314687946527364204e-01
1.619999999999999929e+01 1.305094441812837402e-01
1.630000000000000071e+01 1.293185197282182841e-01
1.640000000000000213e+01 1.279239929050719482e-01
1.650000000000000000e+01 1.263374901581553189e-01
1.660000000000000142e+01 1.245328710164455011e-01
1.669999999999999929e+01 1.222942726794107315e-01
1.680000000000000071e+01 7.919535015642775733e-02
1.690000000000000213e+01 7.169332998928901191e-02
1.700000000000000000e+01 6.471721202539937323e-02
1.710000000000000142e+01 5.830973338603318012e-02
1.719999999999999929e+01 5.254888914034339109e-02
1.730000000000000071e+01 4.749044978170724463e-02
1.740000000000000213e+01 4.318537365587982180e-02
1.750000000000000000e+01 3.969707845402137281e-02
1.760000000000000142e+01 3.707411783661918037e-02
1.769999999999999929e+01 3.536283837015918863e-02
1.780000000000000071e+01 3.461130135066614599e-02
1.790000000000000213e+01 3.486934936474739288e-02
1.800000000000000000e+01 3.616851034475843107e-02
1.810000000000000142e+01 3.855811235032602369e-02
1.819999999999999929e+01 4.207162559119170808e-02
1.830000000000000071e+01 4.672098181172401610e-02
1.840000000000000213e+01 5.252010987937305586e-02
1.850000000000000000e+01 5.946721323111958668e-02
1.860000000000000142e+01 6.753029452274539324e-02
1.869999999999999929e+01 7.666076576316838143e-02
1.880000000000000071e+01 8.677118678044370981e-02
1.890000000000000213e+01 9.773026993231326287e-02
1.900000000000000000e+01 1.093988076088163730e-01
1.910000000000000142e+01 1.216048815865318211e-01
1.920000000000000284e+01 1.341417547043066705e-01
1.930000000000000071e+01 1.465313353290618181e-01
1.940000000000000213e+01 1.101853275584021574e-01
1.950000000000000000e+01 1.107879739083710291e-01
1.960000000000000142e+01 1.116887245107327509e-01
1.970000000000000284e+01 1.127602533481013580e-01
1.980000000000000071e+01 1.142925368912912631e-01
1.990000000000000213e+01 1.163825052140050609e-01
2.000000000000000000e+01 1.190601632680796662e-01
2.010000000000000142e+01 1.223175563583613901e-01
2.020000000000000284e+01 1.261065013162667725e-01
2.030000000000000071e+01 1.303518353824628662e-01
2.040000000000000213e+01 1.349486791988478984e-01
2.050000000000000000e+01 1.397901838726278712e-01
2.060000000000000142e+01 1.447428844593279251e-01
2.070000000000000284e+01 1.496762614395876767e-01
2.080000000000000071e+01 1.544412131511330166e-01
2.090000000000000213e+01 1.588999930547041473e-01
2.100000000000000000e+01 1.629463751854194342e-01
2.110000000000000142e+01 1.665230149224283807e-01
2.120000000000000284e+01 1.696029266733587448e-01
2.130000000000000071e+01 1.721921522773821600e-01
2.140000000000000213e+01 1.743414530209803637e-01
2.150000000000000000e+01 1.761756683431427994e-01
2.160000000000000142e+01 1.778868753087392562e-01
2.170000000000000284e+01 1.796784488483771369e-01
2.180000000000000071e+01 1.817172586017701263e-01
2.190000000000000213e+01 1.841054914055870739e-01
2.200000000000000000e+01 1.868786045714334598e-01
2.210000000000000142e+01 1.900039153919044210e-01
2.220000000000000284e+01 1.933805526483096671e-01
2.230000000000000071e+01 1.967934365640600092e-01
2.240000000000000213e+01 1.996862992113741520e-01
2.250000000000000000e+01 1.791670734225134787e-01
2.260000000000000142e+01 1.776515064013781675e-01
2.270000000000000284e+01 1.767742314550804217e-01
2.280000000000000071e+01 1.761232353023163277e-01
2.290000000000000213e+01 1.758654683087597093e-01
2.300000000000000000e+01 1.763927503694509014e-01
2.310000000000000142e+01 1.777921395510659863e-01
2.320000000000000284e+01 1.800488807702977923e-01
2.330000000000000071e+01 1.831109199066638382e-01
2.340000000000000213e+01 1.869158817125846639e-01
2.350000000000000000e+01 1.913436879957277625e-01
2.360000000000000142e+01 1.962586142275863921e-01
2.370000000000000284e+01 2.014911820041369594e-01
2.380000000000000071e+01 2.067736731980103215e-01
2.390000000000000213e+01 2.119363064553168030e-01
2.400000000000000000e+01 2.168489437575322754e-01
2.410000000000000142e+01 2.213714629532899103e-01
2.420000000000000284e+01 2.253888756906867741e-01
2.430000000000000071e+01 2.288156052918544070e-01
2.440000000000000213e+01 2.315915450160828115e-01
2.450000000000000000e+01 2.336833960487458839e-01
2.460000000000000142e+01 2.350763274784828383e-01
2.470000000000000284e+01 2.357648843069801714e-01
2.480000000000000071e+01 2.357464956551496016e-01
2.490000000000000213e+01 2.350163253090293836e-01
2.500000000000000000e+01 2.335598993191769779e-01
2.510000000000000142e+01 2.313469343978842296e-01
2.520000000000000284e+01 2.283238081738669933e-01
2.530000000000000071e+01 2.243946082397036967e-01
2.540000000000000213e+01 2.193464904344821775e-01
2.550000000000000000e+01 1.656612087613584805e-01
2.560000000000000142e+01 1.539334171520980732e-01
2.570000000000000284e+01 1.417863244109605070e-01
2.580000000000000071e+01 1.292553375931069226e-01
2.590000000000000213e+01 1.163679804350250535e-01
2.600000000000000000e+01 1.031460737652709625e-01
2.610000000000000142e+01 8.960074941743290111e-02
2.620000000000000284e+01 7.575569432348583376e-02
2.630000000000000071e+01 6.160811192066706354e-02
2.640000000000000213e+01 4.719918183396032418e-02
2.650000000000000000e+01 3.255493163284128855e-02
2.660000000000000142e+01 1.771392271929306261e-02
2.670000000000000284e+01 2.730783816739634773e-03
2.680000000000000071e+01 -1.233753997887010456e-02
2.690000000000000213e+01 -2.741904097802372320e-02
2.700000000000000000e+01 -4.241870492978438989e-02
2.710000000000000142e+01 -5.727761692510391356e-02
2.720000000000000284e+01 -7.187649477422253241e-02
2.730000000000000071e+01 -8.612336683081212030e-02
2.740000000000000213e+01 -9.992273059600975671e-02
2.750000000000000000e+01 -1.131847163122241540e-01
2.760000000000000142e+01 -1.258474890585796757e-01
2.770000000000000284e+01 -1.378551823442224489e-01
2.780000000000000071e+01 -1.491923582759766553e-01
2.790000000000000213e+01 -1.598490471126243762e-01
2.800000000000000000e+01 -1.698441421354086600e-01
2.810000000000000142e+01 -1.792551042071610645e-01
2.820000000000000284e+01 -1.885453112308894674e-01
2.830000000000000071e+01 -2.443681223061746621e-01
2.840000000000000213e+01 -2.624879810505751365e-01
2.850000000000000000e+01 -2.793927305898877833e-01
2.860000000000000142e+01 -2.950719996710766679e-01
2.870000000000000284e+01 -3.090123785346947649e-01
2.880000000000000071e+01 -3.209266801310706185e-01
2.890000000000000213e+01 -3.306006390139621942e-01
2.900000000000000000e+01 -3.378859609231419370e-01
2.910000000000000142e+01 -3.426980953963640886e-01
2.920000000000000284e+01 -3.450162865185779637e-01
2.930000000000000071e+01 -3.448803516838889749e-01
2.940000000000000213e+01 -3.423877132272519219e-01
2.950000000000000000e+01 -3.377229195136530748e-01
2.960000000000000142e+01 -3.311261329079444593e-01
2.970000000000000284e+01 -3.229082975034347491e-01
2.980000000000000071e+01 -3.134085028578423859e-01
2.990000000000000213e+01 -3.029284439845327803e-01
3.000000000000000000e+01 -2.917023045856454999e-01
3.010000000000000142e+01 -2.799039408418266817e-01
3.020000000000000284e+01 -2.676491226179584793e-01
3.030000000000000071e+01 -2.549992849648718973e-01
3.040000000000000213e+01 -2.419720145602504147e-01
3.050000000000000000e+01 -2.285670241606041486e-01
3.060000000000000142e+01 -2.147901011679778094e-01
3.070000000000000284e+01 -2.006737840808185958e-01
3.080000000000000071e+01 -1.862815345831458913e-01
3.090000000000000213e+01 -1.717107632483161339e-01
3.100000000000000000e+01 -1.571054021529976197e-01
3.110000000000000142e+01 -1.426793274376514375e-01
3.120000000000000284e+01 -1.288596831911581475e-01
3.130000000000000071e+01 -1.524823250042910416e-01
3.140000000000000213e+01 -1.412779329043676313e-01
3.150000000000000000e+01 -1.298038873287623574e-01
3.160000000000000142e+01 -1.184415655137196488e-01
3.170000000000000284e+01 -1.076605322730372905e-01
3.180000000000000071e+01 -9.705508998270273580e-02
3.190000000000000213e+01 -8.635139909099454059e-02
3.200000000000000000e+01 -7.531468948035113797e-02
3.210000000000000142e+01 -6.380481648366709280e-02
3.220000000000000284e+01 -5.177915193731807975e-02
3.230000000000000426e+01 -3.922743361277225560e-02
3.239999999999999858e+01 -2.621948871986923280e-02
3.250000000000000000e+01 -1.281015963387455159e-02
3.260000000000000142e+01 8.810482520233975379e-04
3.270000000000000284e+01 1.473648917883263465e-02
3.280000000000000426e+01 2.859136320470145876e-02
3.289999999999999858e+01 4.226088571992203669e-02
3.300000000000000000e+01 5.557460479074549653e-02
3.310000000000000142e+01 6.844242412503609430e-02
3.320000000000000284e+01 8.076976568604266049e-02
3.330000000000000426e+01 9.248811591794625642e-02
3.339999999999999858e+01 1.035580156192055234e-01
3.350000000000000000e+01 1.139709258192684871e-01
3.360000000000000142e+01 1.237376277658324142e-01
3.370000000000000284e+01 1.328839824280723114e-01
3.380000000000000426e+01 1.414373368316166335e-01
3.389999999999999858e+01 1.494145359449055022e-01
3.400000000000000000e+01 1.568026389319991942e-01
3.410000000000000142e+01 1.635285940521922221e-01
3.420000000000000284e+01 1.693763012182309957e-01
3.430000000000000426e+01 1.247901475172632502e-01
3.439999999999999858e+01 1.212554552767350913e-01
3.450000000000000000e+01 1.177116346217061960e-01
3.460000000000000142e+01 1.142957127855326327e-01
3.470000000000000284e+01 1.111335668239901153e-01
3.480000000000000426e+01 1.083532100446085167e-01
3.489999999999999858e+01 1.060570294431588678e-01
3.500000000000000000e+01 1.043204892421751850e-01
3.510000000000000142e+01 1.032248515907268072e-01
3.520000000000000284e+01 1.028322141740360962e-01
3.530000000000000426e+01 1.031991142298096520e-01
3.539999999999999858e+01 1.043756839511953416e-01
3.550000000000000000e+01 1.064069520414201442e-01
3.560000000000000142e+01 1.093296814194797406e-01
3.570000000000000284e+01 1.131835326262411456e-01
3.580000000000000426e+01 1.179948716550436316e-01
3.589999999999999858e+01 1.237808135221127870e-01
3.600000000000000000e+01 1.305685045391182797e-01
3.610000000000000142e+01 1.383565624488718449e-01
3.620000000000000284e+01 1.471341537760118001e-01
3.630000000000000426e+01 1.568721935127945777e-01
3.639999999999999858e+01 1.675062521184935704e-01
3.650000000000000000e+01 1.789129410162049183e-01
3.660000000000000142e+01 1.907407519990509392e-01
3.670000000000000284e+01 7.078441428154924608e-02
3.680000000000000426e+01 8.327256878125766093e-02
3.689999999999999858e+01 9.638906145442760476e-02
3.700000000000000000e+01 1.099847467015337976e-01
3.710000000000000142e+01 1.238971977985783290e-01
3.720000000000000284e+01 1.379579911548569626e-01
3.730000000000000426e+01 1.519890007905480012e-01
3.739999999999999858e+01 1.658040071624489187e-01
3.750000000000000000e+01 1.792186170255414268e-01
3.760000000000000142e+01 1.920379288451807831e-01
3.770000000000000284e+01 2.040838581506192462e-01
3.780000000000000426e+01 2.151926552580514240e-01
3.789999999999999858e+01 2.252089851271894538e-01
3.800000000000000000e+01 2.339918054460117247e-01
3.810000000000000142e+01 2.414427850139961862e-01
3.820000000000000284e+01 2.474835088590872090e-01
3.830000000000000426e+01 2.520668457317296607e-01
3.840000000000000568e+01 2.551779208754001438e-01
3.850000000000000000e+01 2.568512394809010502e-01
3.860000000000000142e+01 2.571423807157433572e-01
3.870000000000000284e+01 2.561467359156912593e-01
3.880000000000000426e+01 2.539843412986932947e-01
3.890000000000000568e+01 2.507971923574490170e-01
3.900000000000000000e+01 2.467454062909815171e-01
3.910000000000000142e+01 2.419984333499032303e-01
3.920000000000000284e+01 2.367294085864939390e-01
3.930000000000000426e+01 2.311168906898504183e-01
3.940000000000000568e+01 2.253325973753037559e-01
3.950000000000000000e+01 2.195446738062232228e-01
3.960000000000000142e+01 2.139144277244047210e-01
