# Scan along dir: [1. 1. 0.]
# t	Energy(eV)
0.000000000000000000e+00 3.106633390049907462e+00
1.000000000000000056e-01 3.019463416604198258e+00
2.000000000000000111e-01 3.024835006669611914e+00
3.000000000000000444e-01 3.031521479004883446e+00
4.000000000000000222e-01 3.039376336045659155e+00
5.000000000000000000e-01 3.048215058027241131e+00
6.000000000000000888e-01 3.057825388533907063e+00
7.000000000000000666e-01 3.067980095645948424e+00
8.000000000000000444e-01 3.078446675659725518e+00
9.000000000000000222e-01 3.089007122397565475e+00
1.000000000000000000e+00 3.099462684654937572e+00
1.100000000000000089e+00 3.109634513421481117e+00
1.200000000000000178e+00 3.119363143349421996e+00
1.300000000000000044e+00 3.128524315381930876e+00
1.400000000000000133e+00 3.136995996208658877e+00
1.500000000000000000e+00 3.144684382639686859e+00
1.600000000000000089e+00 3.151500326766095039e+00
1.700000000000000178e+00 3.157370804771212125e+00
1.800000000000000044e+00 3.162220366158972951e+00
1.900000000000000133e+00 3.165977787418334799e+00
2.000000000000000000e+00 3.168572787147164060e+00
2.100000000000000089e+00 3.169945190474789065e+00
2.200000000000000178e+00 3.170038021637739512e+00
2.300000000000000266e+00 3.168811239797149959e+00
2.400000000000000355e+00 3.166216062900765404e+00
2.500000000000000000e+00 3.162239558514759352e+00
2.600000000000000089e+00 3.156890782079270430e+00
2.700000000000000178e+00 3.150200989707094834e+00
2.800000000000000266e+00 3.142214107774659482e+00
2.900000000000000355e+00 3.132983983551484108e+00
3.000000000000000000e+00 3.122583333505657865e+00
3.100000000000000089e+00 3.111093827247971788e+00
3.200000000000000178e+00 3.098605635705274697e+00
3.300000000000000266e+00 3.085231277015091145e+00
3.400000000000000355e+00 3.071089709765069564e+00
3.500000000000000000e+00 3.056315524685180307e+00
3.600000000000000089e+00 3.041076438450936337e+00
3.700000000000000178e+00 3.025577970156716923e+00
3.800000000000000266e+00 3.010085437625729998e+00
3.900000000000000355e+00 2.994924040267783916e+00
4.000000000000000000e+00 2.980484057253529162e+00
4.100000000000000533e+00 2.967168655833325008e+00
4.200000000000000178e+00 2.955327933776924265e+00
4.299999999999999822e+00 2.945261582951037127e+00
4.400000000000000355e+00 2.937207954203036486e+00
4.500000000000000000e+00 2.931343498665584413e+00
4.600000000000000533e+00 2.927781701194928754e+00
4.700000000000000178e+00 2.926573344996360682e+00
4.800000000000000711e+00 2.927722442554383520e+00
4.900000000000000355e+00 2.931179033759912400e+00
5.000000000000000000e+00 2.936843634241182333e+00
5.100000000000000533e+00 2.944580626995537465e+00
5.200000000000000178e+00 2.954223001245668279e+00
5.300000000000000711e+00 2.965561115454919960e+00
5.400000000000000355e+00 2.978339895603068221e+00
5.500000000000000000e+00 2.992280707596577827e+00
5.600000000000000533e+00 3.007091389383390823e+00
5.700000000000000178e+00 3.022434127778717006e+00
5.800000000000000711e+00 3.037998253686383876e+00
5.900000000000000355e+00 3.053465118296266212e+00
6.000000000000000000e+00 3.068527129989643942e+00
6.100000000000000533e+00 3.082889080786671343e+00
6.200000000000000178e+00 3.096272958821451482e+00
6.300000000000000711e+00 3.108460193705048447e+00
6.400000000000000355e+00 3.119247189216261429e+00
6.500000000000000000e+00 3.128455436006478241e+00
6.600000000000000533e+00 3.135954432781065115e+00
6.700000000000000178e+00 3.141643792854688755e+00
6.800000000000000711e+00 3.145459257877806003e+00
6.900000000000000355e+00 3.147369549089156671e+00
7.000000000000000000e+00 3.147384462127973848e+00
7.100000000000000533e+00 3.145570948428442648e+00
7.200000000000000178e+00 3.142057689814166554e+00
7.300000000000000711e+00 3.137065184846449917e+00
7.400000000000000355e+00 3.130910118888602600e+00
7.500000000000000000e+00 3.024184091595923718e+00
7.600000000000000533e+00 3.014083848462023596e+00
7.700000000000000178e+00 3.005622460905533977e+00
7.800000000000000711e+00 2.998789567438750137e+00
7.900000000000000355e+00 2.993534990241042859e+00
8.000000000000000000e+00 2.989805136240583749e+00
8.099999999999999645e+00 2.987486210478694559e+00
8.200000000000001066e+00 2.986473477531670806e+00
8.300000000000000711e+00 2.986654061341359245e+00
8.400000000000000355e+00 2.987926596844932448e+00
8.500000000000000000e+00 2.990203644069322486e+00
8.599999999999999645e+00 2.993421705510073583e+00
8.700000000000001066e+00 2.997537381605321016e+00
8.800000000000000711e+00 3.002540214018577736e+00
8.900000000000000355e+00 3.008441753110526307e+00
9.000000000000000000e+00 3.015270896065703532e+00
9.099999999999999645e+00 3.023068297507913726e+00
9.200000000000001066e+00 3.031874205365459041e+00
9.300000000000000711e+00 3.041716072834826257e+00
9.400000000000000355e+00 3.052605352764603097e+00
9.500000000000000000e+00 3.064522543445403979e+00
9.600000000000001421e+00 3.077414282775724708e+00
9.700000000000001066e+00 3.091197930811355299e+00
9.800000000000000711e+00 3.105748763889510045e+00
9.900000000000000355e+00 3.120912159873773462e+00
1.000000000000000000e+01 3.136500462445829918e+00
1.010000000000000142e+01 3.152298959258249322e+00
1.020000000000000107e+01 3.168065890232456105e+00
1.030000000000000071e+01 3.183550503681639388e+00
1.040000000000000036e+01 3.198482262969079670e+00
1.050000000000000000e+01 3.212593625721127388e+00
1.060000000000000142e+01 3.225612210735425034e+00
1.070000000000000107e+01 3.237283184306093631e+00
1.080000000000000071e+01 3.247372247166059545e+00
1.090000000000000036e+01 3.255667219009320767e+00
1.100000000000000000e+01 3.261994758819906082e+00
1.110000000000000142e+01 3.266213230489558583e+00
1.120000000000000107e+01 3.268218411544661084e+00
1.130000000000000071e+01 3.267953211201267472e+00
1.140000000000000036e+01 3.265399071203272552e+00
1.150000000000000000e+01 3.260581179823316855e+00
1.160000000000000142e+01 3.253572481123892413e+00
1.170000000000000107e+01 3.161560714290216456e+00
1.180000000000000071e+01 3.158033906269728242e+00
1.190000000000000036e+01 3.153607761050388536e+00
1.200000000000000000e+01 3.148348140424239272e+00
1.210000000000000142e+01 3.142345930560090927e+00
1.220000000000000107e+01 3.135677375604260853e+00
1.230000000000000071e+01 3.128417148905151546e+00
1.240000000000000036e+01 3.120561191519958477e+00
1.250000000000000000e+01 3.111946751897809449e+00
1.260000000000000142e+01 3.102032849608721055e+00
1.270000000000000107e+01 3.089206442332631308e+00
1.280000000000000071e+01 3.072837129100313369e+00
1.290000000000000036e+01 3.057336767104452235e+00
1.300000000000000000e+01 3.043299573682785919e+00
1.310000000000000142e+01 3.030741529451388860e+00
1.320000000000000107e+01 3.019744170907200154e+00
1.330000000000000071e+01 3.010349440787089215e+00
1.340000000000000036e+01 3.002598217916482071e+00
1.350000000000000000e+01 2.996460819464914493e+00
1.360000000000000142e+01 2.991874650880156583e+00
1.370000000000000107e+01 2.988772978595095164e+00
1.380000000000000071e+01 2.987036885145667675e+00
1.390000000000000036e+01 2.986558661316913277e+00
1.400000000000000000e+01 2.987228977838248589e+00
1.410000000000000142e+01 2.988950124999763425e+00
1.420000000000000107e+01 2.991645603192246483e+00
1.430000000000000071e+01 2.995261289190363385e+00
1.440000000000000036e+01 2.999765728669624210e+00
1.450000000000000000e+01 3.005159754788496507e+00
1.460000000000000142e+01 3.011464124178563129e+00
1.470000000000000107e+01 3.018713028918392549e+00
1.480000000000000071e+01 3.026947870869738377e+00
1.490000000000000036e+01 3.036206257627439786e+00
1.500000000000000000e+01 3.046507528093576944e+00
1.510000000000000142e+01 3.057852023086964799e+00
1.520000000000000107e+01 3.070206327007527491e+00
1.530000000000000071e+01 3.083502798957250768e+00
1.540000000000000036e+01 3.097645714246766602e+00
1.550000000000000000e+01 3.112487915764204693e+00
1.560000000000000142e+01 3.127867480578960802e+00
1.570000000000000107e+01 3.143582857632519989e+00
1.580000000000000071e+01 3.159406951850510570e+00
1.590000000000000036e+01 3.175092103768798690e+00
1.600000000000000000e+01 3.190378225645295274e+00
1.610000000000000142e+01 3.204994248499050347e+00
1.619999999999999929e+01 3.218673098576399383e+00
1.630000000000000071e+01 3.231141996208914513e+00
1.640000000000000213e+01 3.242161145145244117e+00
1.650000000000000000e+01 3.251485141155712189e+00
1.660000000000000142e+01 3.138181802547827193e+00
1.669999999999999929e+01 3.146453136367773684e+00
1.680000000000000071e+01 3.153356347900595047e+00
1.690000000000000213e+01 3.158704504116936373e+00
1.700000000000000000e+01 3.162322692099332144e+00
1.710000000000000142e+01 3.164047818488170627e+00
1.719999999999999929e+01 3.164110718675595901e+00
1.730000000000000071e+01 3.162687431820027317e+00
1.740000000000000213e+01 3.159963084396927968e+00
1.750000000000000000e+01 3.156120683374456171e+00
1.760000000000000142e+01 3.151327213206118305e+00
1.769999999999999929e+01 3.145728433912509114e+00
1.780000000000000071e+01 3.139442230879140538e+00
1.790000000000000213e+01 3.132556062820505804e+00
1.800000000000000000e+01 3.125100849421613702e+00
1.810000000000000142e+01 3.117018767082391673e+00
1.819999999999999929e+01 3.108041686855377961e+00
1.830000000000000071e+01 3.097326029748387555e+00
1.840000000000000213e+01 3.082884795532256472e+00
1.850000000000000000e+01 3.066670725169432288e+00
1.860000000000000142e+01 3.051842501901322890e+00
1.869999999999999929e+01 3.038459752191366547e+00
1.880000000000000071e+01 3.026591859657991712e+00
1.890000000000000213e+01 3.016307600717657245e+00
1.900000000000000000e+01 3.007651479322252630e+00
1.910000000000000142e+01 3.000627101121851048e+00
1.920000000000000284e+01 2.995197168484300843e+00
1.930000000000000071e+01 2.991298925631859174e+00
1.940000000000000213e+01 2.988826659580880118e+00
1.950000000000000000e+01 2.987675727776587298e+00
1.960000000000000142e+01 2.987734162523437487e+00
1.970000000000000284e+01 2.988899138445290316e+00
1.980000000000000071e+01 2.991079615815444459e+00
1.990000000000000213e+01 2.994209547723332143e+00
2.000000000000000000e+01 2.998242969224052423e+00
2.010000000000000142e+01 3.003164670542987746e+00
2.020000000000000284e+01 3.008983027052519077e+00
2.030000000000000071e+01 3.015725860142790982e+00
2.040000000000000213e+01 3.023432800174659096e+00
2.050000000000000000e+01 3.032144345997277224e+00
2.060000000000000142e+01 3.041890219662774619e+00
2.070000000000000284e+01 3.052684927928325909e+00
2.080000000000000071e+01 3.064513597688158342e+00
2.090000000000000213e+01 3.077328597231526519e+00
2.100000000000000000e+01 3.091046887851121472e+00
2.110000000000000142e+01 3.105555416082503850e+00
2.120000000000000284e+01 3.120700395572151287e+00
2.130000000000000071e+01 3.136298815037538823e+00
2.140000000000000213e+01 3.152139223173151983e+00
2.150000000000000000e+01 3.167981064512428002e+00
2.160000000000000142e+01 3.183576209838409277e+00
2.170000000000000284e+01 3.198653656557070235e+00
2.180000000000000071e+01 3.212940397158348560e+00
2.190000000000000213e+01 3.226170108857350893e+00
2.200000000000000000e+01 3.112837823929795356e+00
2.210000000000000142e+01 3.123709678115450306e+00
2.220000000000000284e+01 3.133869722648695344e+00
2.230000000000000071e+01 3.143020021100033201e+00
2.240000000000000213e+01 3.150912603783146082e+00
2.250000000000000000e+01 3.157340607572109992e+00
2.260000000000000142e+01 3.162112342146484512e+00
2.270000000000000284e+01 3.164966746089212357e+00
2.280000000000000071e+01 3.166079771281001598e+00
2.290000000000000213e+01 3.165610117250880151e+00
2.300000000000000000e+01 3.163733584747805860e+00
2.310000000000000142e+01 3.160639416783800115e+00
2.320000000000000284e+01 3.156501220935895358e+00
2.330000000000000071e+01 3.151481310155860527e+00
2.340000000000000213e+01 3.145713464366691969e+00
2.350000000000000000e+01 3.139307622962309807e+00
2.360000000000000142e+01 3.132327618025545490e+00
2.370000000000000284e+01 3.124777268762161331e+00
2.380000000000000071e+01 3.116535971246070957e+00
2.390000000000000213e+01 3.107174813009732084e+00
2.400000000000000000e+01 3.095391689402682722e+00
2.410000000000000142e+01 3.079805473719548381e+00
2.420000000000000284e+01 3.064309327252445314e+00
2.430000000000000071e+01 3.050247640087050627e+00
2.440000000000000213e+01 3.037655461702712945e+00
2.450000000000000000e+01 3.026614562242317952e+00
2.460000000000000142e+01 3.017182503044628206e+00
2.470000000000000284e+01 3.009396322060998941e+00
2.480000000000000071e+01 3.003228238329830546e+00
2.490000000000000213e+01 2.998629962426014206e+00
2.500000000000000000e+01 2.995535206510439696e+00
2.510000000000000142e+01 2.993825809707296060e+00
2.520000000000000284e+01 2.993395708620840701e+00
2.530000000000000071e+01 2.994134467349054862e+00
2.540000000000000213e+01 2.995943104813689750e+00
2.550000000000000000e+01 2.998741883332017633e+00
2.560000000000000142e+01 3.002474358188085723e+00
2.570000000000000284e+01 3.007104783990215857e+00
2.580000000000000071e+01 3.012631189043688540e+00
2.590000000000000213e+01 3.019071631515898080e+00
2.600000000000000000e+01 3.026458827671740348e+00
2.610000000000000142e+01 3.034834306093445733e+00
2.620000000000000284e+01 3.044237006149591807e+00
2.630000000000000071e+01 3.054689105418072259e+00
2.640000000000000213e+01 3.066194817126571603e+00
2.650000000000000000e+01 3.078725405428153650e+00
2.660000000000000142e+01 3.092218373491663286e+00
2.670000000000000284e+01 3.106582690206970643e+00
2.680000000000000071e+01 3.121676259786566376e+00
2.690000000000000213e+01 3.137341571145654484e+00
2.700000000000000000e+01 3.153381215696318574e+00
2.710000000000000142e+01 3.169571096410700228e+00
2.720000000000000284e+01 3.185665128269387747e+00
2.730000000000000071e+01 3.201406138569096171e+00
2.740000000000000213e+01 3.216521048904994018e+00
2.750000000000000000e+01 3.230739603710430341e+00
2.760000000000000142e+01 3.120553371130453613e+00
2.770000000000000284e+01 3.132392190532036658e+00
2.780000000000000071e+01 3.143740244676239026e+00
2.790000000000000213e+01 3.154276475217990594e+00
2.800000000000000000e+01 3.163732105992471233e+00
2.810000000000000142e+01 3.171860987812944455e+00
2.820000000000000284e+01 3.178437617803443693e+00
2.830000000000000071e+01 3.183142224810358911e+00
2.840000000000000213e+01 3.186063553470835696e+00
2.850000000000000000e+01 3.187332160882285770e+00
2.860000000000000142e+01 3.187110844252849073e+00
2.870000000000000284e+01 3.185582865356534121e+00
2.880000000000000071e+01 3.182923684239377771e+00
2.890000000000000213e+01 3.179288774337774459e+00
2.900000000000000000e+01 3.174809552896443510e+00
2.910000000000000142e+01 3.169581066896987487e+00
2.920000000000000284e+01 3.163656825632662706e+00
2.930000000000000071e+01 3.157022025238299001e+00
2.940000000000000213e+01 3.149530120060441085e+00
2.950000000000000000e+01 3.140722728503957395e+00
2.960000000000000142e+01 3.129149898173282818e+00
2.970000000000000284e+01 3.112004762524864798e+00
2.980000000000000071e+01 3.096273238784358117e+00
2.990000000000000213e+01 3.082088922585087154e+00
3.000000000000000000e+01 3.069242218553072998e+00
3.010000000000000142e+01 3.057850403263592032e+00
3.020000000000000284e+01 3.047989938398631971e+00
3.030000000000000071e+01 3.039726952463110088e+00
3.040000000000000213e+01 3.033040472888262062e+00
3.050000000000000000e+01 3.027890760201088938e+00
3.060000000000000142e+01 3.024197832241155126e+00
3.070000000000000284e+01 3.021852587199566731e+00
3.080000000000000071e+01 3.020730241842531694e+00
3.090000000000000213e+01 3.020695067285732449e+00
3.100000000000000000e+01 3.021615695141886437e+00
3.110000000000000142e+01 3.023367528935645421e+00
3.120000000000000284e+01 3.025845487624829744e+00
3.130000000000000071e+01 3.028962156503329339e+00
3.140000000000000213e+01 3.032653951823294669e+00
3.150000000000000000e+01 3.036875665477723807e+00
3.160000000000000142e+01 3.041606943305867006e+00
3.170000000000000284e+01 3.046829735686780616e+00
3.180000000000000071e+01 3.052528910529906270e+00
3.190000000000000213e+01 3.058683187747487153e+00
3.200000000000000000e+01 3.065251313232328467e+00
3.210000000000000142e+01 3.072168382300736855e+00
3.220000000000000284e+01 3.079306763236751454e+00
3.230000000000000426e+01 3.086487510177577942e+00
3.239999999999999858e+01 3.093359337868929693e+00
3.250000000000000000e+01 3.014828875114319295e+00
3.260000000000000142e+01 3.011348565068675764e+00
3.270000000000000284e+01 3.008519105434859675e+00
3.280000000000000426e+01 3.006260117817151301e+00
3.289999999999999858e+01 3.004476052414901233e+00
3.300000000000000000e+01 3.003050253208010112e+00
3.310000000000000142e+01 3.001847429082222352e+00
3.320000000000000284e+01 3.000721989337778339e+00
3.330000000000000426e+01 2.999522351823618482e+00
3.339999999999999858e+01 2.998111693771964070e+00
3.350000000000000000e+01 2.996344218288033545e+00
3.360000000000000142e+01 2.994110280465063223e+00
3.370000000000000284e+01 2.991312895928039950e+00
3.380000000000000426e+01 2.987916298340529409e+00
3.389999999999999858e+01 2.983881170508092762e+00
3.400000000000000000e+01 2.979237545740081483e+00
3.410000000000000142e+01 2.974038351192286989e+00
3.420000000000000284e+01 2.968367907041050469e+00
3.430000000000000426e+01 2.962352379217892295e+00
3.439999999999999858e+01 2.956157653156721743e+00
3.450000000000000000e+01 2.949962128392264127e+00
3.460000000000000142e+01 2.943951262273245106e+00
3.470000000000000284e+01 2.938295502325098063e+00
3.480000000000000426e+01 2.933148584778844103e+00
3.489999999999999858e+01 2.928638721124142474e+00
3.500000000000000000e+01 2.924860801477595196e+00
3.510000000000000142e+01 2.921884722768360643e+00
3.520000000000000284e+01 2.919749585217218169e+00
3.530000000000000426e+01 2.918387422466066639e+00
3.539999999999999858e+01 2.917701527644814607e+00
3.550000000000000000e+01 2.881323151194131515e+00
3.560000000000000142e+01 2.881340579690975012e+00
3.570000000000000284e+01 2.881291371377510124e+00
3.580000000000000426e+01 2.881190195459639725e+00
3.589999999999999858e+01 2.881114301375858666e+00
3.600000000000000000e+01 2.881170839329836753e+00
3.610000000000000142e+01 2.881481661637618430e+00
3.620000000000000284e+01 2.882170341724347384e+00
3.630000000000000426e+01 2.883336055138785881e+00
3.639999999999999858e+01 2.885053931847795461e+00
3.650000000000000000e+01 2.887324417025938672e+00
3.660000000000000142e+01 2.890161125074686588e+00
3.670000000000000284e+01 2.893504722188077416e+00
3.680000000000000426e+01 2.897268853766292729e+00
3.689999999999999858e+01 2.901377048063067843e+00
3.700000000000000000e+01 2.905734851463193102e+00
3.710000000000000142e+01 2.910284886050176212e+00
3.720000000000000284e+01 2.915003244347876166e+00
3.730000000000000426e+01 2.919899943197568071e+00
3.739999999999999858e+01 2.925016000459542909e+00
3.750000000000000000e+01 2.930405601429745488e+00
3.760000000000000142e+01 2.936129132821261756e+00
3.770000000000000284e+01 2.942246089490606842e+00
3.780000000000000426e+01 2.948820410074626697e+00
3.789999999999999858e+01 2.955917120875491744e+00
3.800000000000000000e+01 2.963597966549148310e+00
3.810000000000000142e+01 2.971910030289084848e+00
3.820000000000000284e+01 2.980875599376150209e+00
3.830000000000000426e+01 2.990437334159223859e+00
3.840000000000000568e+01 2.758936166929906619e+00
3.850000000000000000e+01 2.758842882145450037e+00
3.860000000000000142e+01 2.760808462390169193e+00
3.870000000000000284e+01 2.764859866404462796e+00
3.880000000000000426e+01 2.770995385090437857e+00
3.890000000000000568e+01 2.779160294779761120e+00
3.900000000000000000e+01 2.789282673644810640e+00
3.910000000000000142e+01 2.801226959286262197e+00
3.920000000000000284e+01 2.814828710112190713e+00
3.930000000000000426e+01 2.829858162911867758e+00
3.940000000000000568e+01 2.846087091510118849e+00
3.950000000000000000e+01 2.863235943981657705e+00
3.960000000000000142e+01 2.881017709335468080e+00
3.970000000000000284e+01 2.899088888729630664e+00
3.980000000000000426e+01 2.917166543529183365e+00
