# Scan along dir: (0.0, 0.0, 1.0)
# t	Energy(eV)
2.600000000000000089e+00 -8.697650131633931636e-01
2.700000000000000178e+00 -8.775422311524621044e-01
2.800000000000000266e+00 -8.826345589692690119e-01
2.900000000000000355e+00 -8.855006846477460059e-01
3.000000000000000000e+00 -8.865591147273534922e-01
3.100000000000000089e+00 -8.860660523920103060e-01
3.200000000000000178e+00 -8.841619354968970335e-01
3.300000000000000266e+00 -8.809637847449320880e-01
3.400000000000000355e+00 -8.765856402002696335e-01
3.500000000000000000e+00 -8.711354866686771281e-01
3.600000000000000089e+00 -8.647079362024672200e-01
3.700000000000000178e+00 -8.574025392623014774e-01
3.800000000000000266e+00 -8.492875974058167188e-01
3.900000000000000355e+00 -8.404332915353882605e-01
4.000000000000000000e+00 -8.309015214973061170e-01
4.099999999999999645e+00 -8.207477502431088645e-01
4.200000000000000178e+00 -8.100135642608217168e-01
4.300000000000000711e+00 -7.987430347930843944e-01
4.400000000000000355e+00 -7.869715236558065818e-01
4.500000000000000000e+00 -7.747308161644972380e-01
4.599999999999999645e+00 -7.620479325140157023e-01
4.700000000000000178e+00 -7.489484787962288337e-01
4.800000000000000711e+00 -7.354508635095950986e-01
4.900000000000000355e+00 -7.215718964235584565e-01
5.000000000000000000e+00 -7.073256736498465536e-01
5.099999999999999645e+00 -6.927246298666820401e-01
5.200000000000000178e+00 -6.777816736951542964e-01
5.300000000000000711e+00 -6.625066728468347321e-01
5.400000000000000355e+00 -6.469129770199475438e-01
5.500000000000000000e+00 -6.310140178140692946e-01
5.599999999999999645e+00 -6.148246883254597783e-01
5.700000000000000178e+00 -5.983623507382658246e-01
5.800000000000000711e+00 -5.816476847912563919e-01
5.900000000000000355e+00 -5.647053487498063795e-01
6.000000000000000000e+00 -5.475642658153465625e-01
6.099999999999999645e+00 -5.302511267103580117e-01
6.200000000000000178e+00 -5.127893115875017394e-01
6.300000000000000711e+00 -4.952236415624704513e-01
6.400000000000000355e+00 -4.775865152013962778e-01
6.500000000000000000e+00 -4.599063179758204889e-01
6.599999999999999645e+00 -4.422263439156663978e-01
6.700000000000001066e+00 -4.245776620099812604e-01
6.800000000000000711e+00 -4.069998070432232495e-01
6.900000000000000355e+00 -3.895344418749133730e-01
7.000000000000000000e+00 -3.722161292513281872e-01
7.099999999999999645e+00 -3.550891238043747400e-01
7.200000000000001066e+00 -3.381928669700555723e-01
7.300000000000000711e+00 -3.215693180318299760e-01
7.400000000000000355e+00 -3.052607277313010847e-01
7.500000000000000000e+00 -2.893030169342689639e-01
7.599999999999999645e+00 -2.737399995788165619e-01
7.700000000000001066e+00 -2.586019049998689034e-01
7.800000000000000711e+00 -2.439404243007037287e-01
7.900000000000000355e+00 -2.297568729492467376e-01
8.000000000000000000e+00 -2.161141712954441907e-01
8.099999999999999645e+00 -2.030109228856677994e-01
8.200000000000001066e+00 -1.904861320508142164e-01
8.300000000000000711e+00 -1.785724344403756270e-01
8.400000000000000355e+00 -1.672831293152792220e-01
8.500000000000000000e+00 -1.566574561176290459e-01
8.599999999999999645e+00 -1.467403052302698185e-01
8.700000000000001066e+00 -1.375909537735906518e-01
8.800000000000000711e+00 -1.293228630009832791e-01
8.900000000000000355e+00 -1.221273632025061673e-01
9.000000000000000000e+00 -1.170847812540296573e-01
9.099999999999999645e+00 -1.174166052132075144e-01
9.200000000000001066e+00 -1.796842600325567751e-01
9.300000000000000711e+00 -2.209520420746873270e-01
9.400000000000000355e+00 -2.596170922962328653e-01
9.500000000000000000e+00 -2.947499354002616201e-01
9.599999999999999645e+00 -3.256927070757842380e-01
9.700000000000001066e+00 -3.520219302373313042e-01
9.800000000000000711e+00 -3.734933534153515033e-01
9.900000000000000355e+00 -3.899934764132662046e-01
1.000000000000000000e+01 -4.015509419055107720e-01
1.009999999999999964e+01 -4.082271585285410787e-01
1.020000000000000107e+01 -4.103714099696227358e-01
1.030000000000000071e+01 -4.082143971550973305e-01
1.040000000000000036e+01 -4.019930392090858007e-01
1.050000000000000000e+01 -3.921166369689643716e-01
1.059999999999999964e+01 -3.791744318126575308e-01
1.069999999999999929e+01 -3.640201801362494827e-01
1.080000000000000071e+01 -4.238471782909640773e-01
1.090000000000000036e+01 -4.087515851462439898e-01
1.100000000000000000e+01 -3.908329071621068351e-01
1.109999999999999964e+01 -3.708723303586256570e-01
1.119999999999999929e+01 -3.495033810241525707e-01
1.130000000000000071e+01 -3.273015874214877385e-01
1.140000000000000036e+01 -3.047426845150993380e-01
1.150000000000000000e+01 -2.821815846848343412e-01
1.159999999999999964e+01 -2.599202823175059685e-01
1.169999999999999929e+01 -2.381883080777855710e-01
1.180000000000000071e+01 -2.171531693838111288e-01
1.190000000000000036e+01 -1.969448830364721736e-01
1.200000000000000000e+01 -1.776685073540216209e-01
1.209999999999999964e+01 -1.593694438133295144e-01
1.220000000000000107e+01 -1.420861521935945504e-01
1.230000000000000071e+01 -1.258389306207714498e-01
1.240000000000000036e+01 -1.106256991229321862e-01
1.250000000000000000e+01 -9.643984214986733861e-02
1.259999999999999964e+01 -8.326483911087256828e-02
1.270000000000000107e+01 -7.107032643815403006e-02
1.280000000000000071e+01 -5.983079166048588249e-02
1.290000000000000036e+01 -4.952570435313274899e-02
1.300000000000000000e+01 -4.014235106756824933e-02
1.309999999999999964e+01 -3.171311470397819576e-02
1.320000000000000107e+01 -3.291861539704550310e-01
1.330000000000000071e+01 -3.015751306357654649e-01
1.340000000000000036e+01 -2.738191173122150879e-01
1.350000000000000000e+01 -2.465264635766049039e-01
1.359999999999999964e+01 -2.201429066576165994e-01
1.370000000000000107e+01 -1.949791183055706867e-01
1.380000000000000071e+01 -1.712322850454017775e-01
1.390000000000000036e+01 -1.490221686787007727e-01
1.400000000000000000e+01 -1.284039111067243333e-01
1.409999999999999964e+01 -1.093838473980404125e-01
1.420000000000000107e+01 -9.193303950160114368e-02
1.430000000000000071e+01 -7.599739793882820393e-02
1.440000000000000036e+01 -6.150562927165825755e-02
1.450000000000000000e+01 -4.837588777147905361e-02
1.459999999999999964e+01 -3.651723162698816694e-02
1.470000000000000107e+01 -2.584072075605092778e-02
1.480000000000000071e+01 -1.625577809021372389e-02
1.490000000000000036e+01 -7.671252742630141341e-03
1.500000000000000000e+01 0.000000000000000000e+00
