# ts	Energy
9.000000000000000222e-01 2.919352788760426476e-01
9.200000000000000400e-01 2.236634022321342397e-01
9.400000000000000577e-01 1.602566759288532594e-01
9.599999999999999645e-01 1.015381007452905299e-01
9.799999999999999822e-01 4.725871533728302765e-02
1.000000000000000000e+00 -2.836631929489786402e-03
1.020000000000000018e+00 -4.900309268935989365e-02
1.040000000000000036e+00 -9.149578568177950399e-02
1.060000000000000053e+00 -1.305678559533815508e-01
1.080000000000000071e+00 -1.664646796644018989e-01
1.100000000000000089e+00 -1.993766199890250612e-01
1.120000000000000107e+00 -2.294587176323894251e-01
1.139999999999999902e+00 -2.568654245918061685e-01
1.159999999999999920e+00 -2.817511928645956010e-01
1.179999999999999938e+00 -3.042699801435105322e-01
1.199999999999999956e+00 -3.245699978307598488e-01
1.219999999999999973e+00 -3.427918546301533254e-01
1.239999999999999991e+00 -3.590605158007489361e-01
1.260000000000000009e+00 -3.734970511874284305e-01
1.280000000000000027e+00 -3.862225306350776100e-01
1.299999999999999822e+00 -3.973580239885818322e-01
1.319999999999999840e+00 -4.070243581884694928e-01
1.339999999999999858e+00 -4.153411141055796119e-01
1.359999999999999876e+00 -4.224111625689612182e-01
1.379999999999999893e+00 -4.283118503446300407e-01
1.399999999999999911e+00 -4.331183285802761573e-01
1.419999999999999929e+00 -4.369057484235747690e-01
1.439999999999999947e+00 -4.397492224174165965e-01
1.459999999999999964e+00 -4.417215468164535919e-01
1.479999999999999982e+00 -4.428911676026858202e-01
1.500000000000000000e+00 -4.433173866191097989e-01
1.520000000000000018e+00 -4.430538055147946186e-01
1.540000000000000036e+00 -4.421539309355762559e-01
1.560000000000000053e+00 -4.406712695272917424e-01
1.580000000000000071e+00 -4.386593383667241608e-01
1.599999999999999867e+00 -4.361717757906203308e-01
1.619999999999999885e+00 -4.332585338584110102e-01
1.639999999999999902e+00 -4.299545078953381783e-01
1.659999999999999920e+00 -4.262908287170991128e-01
1.679999999999999938e+00 -4.222986271394172375e-01
1.699999999999999734e+00 -4.180090339779996556e-01
1.719999999999999751e+00 -4.134524711488669069e-01
1.739999999999999769e+00 -4.086564945334447696e-01
1.759999999999999787e+00 -4.036461249654449968e-01
1.779999999999999805e+00 -3.984435527491995699e-01
1.799999999999999822e+00 -3.930707247026401507e-01
1.819999999999999840e+00 -3.875495876436775844e-01
1.839999999999999858e+00 -3.819020940577583789e-01
1.859999999999999876e+00 -3.761505364815393437e-01
1.879999999999999893e+00 -3.703171559296233872e-01
1.899999999999999911e+00 -3.644175125151421502e-01
1.919999999999999929e+00 -3.584628268404839169e-01
1.939999999999999947e+00 -3.524642471828781654e-01
1.959999999999999964e+00 -3.464329218195540960e-01
1.979999999999999982e+00 -3.403798454849153998e-01
2.000000000000000000e+00 -3.343142279782658766e-01
2.020000000000000018e+00 -3.282441419569457897e-01
2.040000000000000036e+00 -3.221776986017547695e-01
2.060000000000000053e+00 -3.161230235225695462e-01
2.079999999999999627e+00 -3.100882423292545820e-01
2.099999999999999645e+00 -3.040814806316867736e-01
2.119999999999999662e+00 -2.981110629218577390e-01
2.139999999999999680e+00 -2.921860691140635846e-01
2.159999999999999698e+00 -2.863133716351455860e-01
2.179999999999999716e+00 -2.804961130391563917e-01
2.199999999999999734e+00 -2.747371150308755561e-01
2.219999999999999751e+00 -2.690391993150836880e-01
2.239999999999999769e+00 -2.634051727518223474e-01
2.259999999999999787e+00 -2.578369515168750792e-01
2.279999999999999805e+00 -2.523351694097259457e-01
2.299999999999999822e+00 -2.469014828639821968e-01
2.319999999999999840e+00 -2.415382846951800999e-01
2.339999999999999858e+00 -2.362479799919035006e-01
2.359999999999999876e+00 -2.310329738427365220e-01
2.379999999999999893e+00 -2.258957339974741463e-01
2.399999999999999911e+00 -2.208394566424934369e-01
2.419999999999999929e+00 -2.158671379296286386e-01
2.439999999999999947e+00 -2.109791018689566311e-01
2.459999999999999964e+00 -2.061750024769276601e-01
2.479999999999999982e+00 -2.014544937699835614e-01
2.499999999999999556e+00 -1.968172297645799929e-01
2.519999999999999574e+00 -1.922625407526683539e-01
2.539999999999999591e+00 -1.877884774929818590e-01
2.559999999999999609e+00 -1.833936889070074128e-01
2.579999999999999627e+00 -1.790782528414400221e-01
2.599999999999999645e+00 -1.748423700612584675e-01
2.619999999999999662e+00 -1.706862413314714499e-01
2.639999999999999680e+00 -1.666100751463480689e-01
2.659999999999999698e+00 -1.626145437566877128e-01
2.679999999999999716e+00 -1.587008996087119206e-01
2.699999999999999734e+00 -1.548688454412964211e-01
2.719999999999999751e+00 -1.511170442891126842e-01
2.739999999999999769e+00 -1.474441418584174768e-01
2.759999999999999787e+00 -1.438487838554537712e-01
2.779999999999999805e+00 -1.403295357091059181e-01
2.799999999999999822e+00 -1.368840296236096821e-01
2.819999999999999840e+00 -1.335097042319195459e-01
2.839999999999999858e+00 -1.302056221688767113e-01
2.859999999999999876e+00 -1.269712545784492941e-01
2.879999999999999893e+00 -1.238060726046201765e-01
2.899999999999999911e+00 -1.207095473913623457e-01
2.919999999999999485e+00 -1.176813493105770408e-01
2.939999999999999503e+00 -1.147219322239763362e-01
2.959999999999999520e+00 -1.118311439041956151e-01
2.979999999999999538e+00 -1.090075838824715454e-01
2.999999999999999556e+00 -1.062497443144285875e-01
3.019999999999999574e+00 -1.035561173557050657e-01
3.039999999999999591e+00 -1.009251865595151704e-01
3.059999999999999609e+00 -9.835491933420272004e-02
3.079999999999999627e+00 -9.584259333513157897e-02
3.099999999999999645e+00 -9.338669930570436817e-02
3.119999999999999662e+00 -9.098655502636630865e-02
3.139999999999999680e+00 -8.864149206149822546e-02
3.159999999999999698e+00 -8.635084197547143736e-02
3.179999999999999716e+00 -8.411399156044489789e-02
3.199999999999999734e+00 -8.193096963143220446e-02
3.219999999999999751e+00 -7.980191853654489131e-02
3.239999999999999769e+00 -7.772578482648985487e-02
3.259999999999999343e+00 -7.570121437674841303e-02
3.279999999999999361e+00 -7.372685306281098749e-02
3.299999999999999378e+00 -7.180134676017800588e-02
3.319999999999999396e+00 -6.992313803300685693e-02
3.339999999999999414e+00 -6.808986841838129966e-02
3.359999999999999432e+00 -6.629970923818517825e-02
3.379999999999999449e+00 -6.455196811327673645e-02
3.399999999999999467e+00 -6.284605041067822806e-02
3.419999999999999485e+00 -6.118136149740173446e-02
3.439999999999999503e+00 -5.955731316825546573e-02
3.459999999999999520e+00 -5.797370288667379190e-02
3.479999999999999538e+00 -5.643084869411310600e-02
3.499999999999999556e+00 -5.492822250813063356e-02
3.519999999999999574e+00 -5.346471718412368346e-02
3.539999999999999591e+00 -5.203921592644385197e-02
3.559999999999999609e+00 -5.065060193945725153e-02
3.579999999999999627e+00 -4.929770479355879975e-02
3.599999999999999645e+00 -4.797873056432887945e-02
3.619999999999999662e+00 -4.669177330054805758e-02
3.639999999999999680e+00 -4.543608125826359423e-02
3.659999999999999698e+00 -4.421119292139488732e-02
3.679999999999999272e+00 -4.301664677387560809e-02
3.699999999999999289e+00 -4.185198129963457747e-02
3.719999999999999307e+00 -4.071689573281372931e-02
3.739999999999999325e+00 -3.961172373831216287e-02
3.759999999999999343e+00 -3.853644552353295560e-02
3.779999999999999361e+00 -3.749024427392372294e-02
3.799999999999999378e+00 -3.647223461393337557e-02
3.819999999999999396e+00 -3.548153116799646067e-02
3.839999999999999414e+00 -3.451724252975417462e-02
3.859999999999999432e+00 -3.357811544582577079e-02
3.879999999999999449e+00 -3.266241161590190817e-02
3.899999999999999467e+00 -3.176922585426710660e-02
3.919999999999999485e+00 -3.089822159510009422e-02
3.939999999999999503e+00 -3.004907174956372370e-02
3.959999999999999520e+00 -2.922144922884948107e-02
3.979999999999999538e+00 -2.841507097215088470e-02
3.999999999999999556e+00 -2.763016574434384517e-02
4.019999999999999574e+00 -2.686708385041953681e-02
4.040000000000000036e+00 -2.612534641877185468e-02
4.059999999999999609e+00 -2.540426590778652877e-02
4.080000000000000071e+00 -2.470315477583483535e-02
4.099999999999999645e+00 -2.402132548129313344e-02
4.119999999999999218e+00 -2.335794253389186781e-02
4.139999999999999680e+00 -2.271158703777348409e-02
4.159999999999999254e+00 -2.208119548779560043e-02
4.179999999999999716e+00 -2.146648455486129675e-02
4.199999999999999289e+00 -2.086723802178552453e-02
4.219999999999999751e+00 -2.028323967137853068e-02
4.239999999999999325e+00 -1.971427838840720745e-02
4.259999999999999787e+00 -1.916044917416584448e-02
4.279999999999999361e+00 -1.862226529062985594e-02
4.299999999999999822e+00 -1.809962725824106056e-02
4.319999999999999396e+00 -1.759201394769999843e-02
4.339999999999999858e+00 -1.709889720222597040e-02
4.359999999999999432e+00 -1.661974886503355189e-02
4.379999999999999893e+00 -1.615400059536793373e-02
4.399999999999999467e+00 -1.570061691389990077e-02
4.419999999999999929e+00 -1.525846294927632463e-02
4.439999999999999503e+00 -1.482720675805336737e-02
4.459999999999999964e+00 -1.440671838451669518e-02
4.479999999999999538e+00 -1.399686787293793686e-02
4.500000000000000000e+00 -1.359752526760284533e-02
4.519999999999999574e+00 -1.320868844219202053e-02
4.539999999999999147e+00 -1.283086014746996108e-02
4.559999999999999609e+00 -1.246428453274325311e-02
4.579999999999999183e+00 -1.210860677951093416e-02
4.599999999999999645e+00 -1.176342054514399951e-02
4.619999999999999218e+00 -1.142831948701835201e-02
4.639999999999999680e+00 -1.110289263778949619e-02
4.659999999999999254e+00 -1.078645154659815461e-02
4.679999999999999716e+00 -1.047793143619889580e-02
4.699999999999999289e+00 -1.017685564296425330e-02
4.719999999999999751e+00 -9.883150800954174781e-03
4.739999999999999325e+00 -9.596750265870986063e-03
4.759999999999999787e+00 -9.317587393402798623e-03
4.779999999999999361e+00 -9.045630728586651764e-03
4.799999999999999822e+00 -8.781257892589346831e-03
4.819999999999999396e+00 -8.524950552034293166e-03
4.839999999999999858e+00 -8.276555273786758565e-03
4.859999999999999432e+00 -8.035758750097234809e-03
4.879999999999999893e+00 -7.802247673211432782e-03
4.899999999999999467e+00 -7.575708735389322795e-03
4.919999999999999929e+00 -7.355713045903218561e-03
4.939999999999999503e+00 -7.141375455231285113e-03
4.959999999999999964e+00 -6.932059616565847820e-03
4.979999999999999538e+00 -6.727693980893553749e-03
5.000000000000000000e+00 -6.528255583972936149e-03
5.019999999999999574e+00 -6.333721461557775129e-03
5.040000000000000036e+00 -6.144072748768148601e-03
5.059999999999999609e+00 -5.959536542998130487e-03
5.080000000000000071e+00 -5.780677514118884308e-03
5.099999999999999645e+00 -5.607585474716986207e-03
5.120000000000000107e+00 -5.440022719798331269e-03
5.139999999999999680e+00 -5.277746085728243775e-03
5.160000000000000142e+00 -5.120512408886192940e-03
5.179999999999999716e+00 -4.968046648290296713e-03
5.199999999999999289e+00 -4.819703188687771839e-03
5.219999999999999751e+00 -4.674746574369573193e-03
5.239999999999999325e+00 -4.533034323864239268e-03
5.259999999999999787e+00 -4.394573195409371552e-03
5.279999999999999361e+00 -4.259369947247352434e-03
5.299999999999999822e+00 -4.127431337625206420e-03
5.319999999999999396e+00 -3.998867490615055226e-03
5.339999999999999858e+00 -3.874196934992475694e-03
5.359999999999999432e+00 -3.753738045317981525e-03
5.379999999999999893e+00 -3.637338740070546889e-03
5.399999999999999467e+00 -3.524806468403397786e-03
5.419999999999999929e+00 -3.415948679455573650e-03
5.439999999999999503e+00 -3.310569106772850295e-03
5.459999999999999964e+00 -3.208248548025625230e-03
5.479999999999999538e+00 -3.108262776577844222e-03
5.500000000000000000e+00 -3.010328959514894237e-03
5.519999999999999574e+00 -2.914468211331164293e-03
5.540000000000000036e+00 -2.820706712306560171e-03
5.559999999999999609e+00 -2.729070642735160340e-03
5.580000000000000071e+00 -2.639614872210104685e-03
5.599999999999999645e+00 -2.552727783595883787e-03
5.619999999999999218e+00 -2.468886122782947001e-03
5.639999999999999680e+00 -2.388062994536945677e-03
5.659999999999999254e+00 -2.310104696785959116e-03
5.679999999999999716e+00 -2.234857527472228905e-03
5.699999999999999289e+00 -2.162167784533264303e-03
5.719999999999999751e+00 -2.091787863155971511e-03
5.739999999999999325e+00 -2.023099206917542553e-03
5.759999999999999787e+00 -1.955668918218130686e-03
5.779999999999999361e+00 -1.889497419916320864e-03
5.799999999999999822e+00 -1.824622409753121760e-03
5.819999999999999396e+00 -1.761081585455421400e-03
5.839999999999999858e+00 -1.698916006839214926e-03
5.859999999999999432e+00 -1.638368458214654877e-03
5.879999999999999893e+00 -1.579959457526664696e-03
5.899999999999999467e+00 -1.523830249579624652e-03
5.919999999999999929e+00 -1.469860034160802575e-03
5.939999999999999503e+00 -1.417923643645478682e-03
5.959999999999999964e+00 -1.367895910413644694e-03
5.979999999999999538e+00 -1.319625540582680667e-03
6.000000000000000000e+00 -1.272657522645812000e-03
6.019999999999999574e+00 -1.226457193145166769e-03
6.039999999999999147e+00 -1.180951802510078752e-03
6.059999999999999609e+00 -1.136184896082234608e-03
6.079999999999999183e+00 -1.092200019217458989e-03
6.099999999999999645e+00 -1.049040717257435085e-03
6.119999999999999218e+00 -1.006836027888969448e-03
6.139999999999999680e+00 -9.660528832778729480e-04
6.159999999999999254e+00 -9.269992146758512797e-04
6.179999999999999716e+00 -8.896039888262076423e-04
6.199999999999999289e+00 -8.537635733688250794e-04
6.219999999999999751e+00 -8.193743359388543090e-04
6.239999999999999325e+00 -7.863295721114507697e-04
6.259999999999999787e+00 -7.543382529984869744e-04
6.279999999999999361e+00 -7.228556850554200552e-04
6.299999999999999822e+00 -6.916850426314548328e-04
6.319999999999999396e+00 -6.608697868243883222e-04
6.339999999999999858e+00 -6.304573835255455894e-04
6.359999999999999432e+00 -6.004952986215401911e-04
6.379999999999999893e+00 -5.710548298873130424e-04
6.399999999999999467e+00 -5.424843208686920548e-04
6.419999999999999929e+00 -5.152079744989539190e-04
6.439999999999999503e+00 -4.892414535175824974e-04
6.459999999999999076e+00 -4.644975408677580464e-04
6.479999999999999538e+00 -4.408890194973792698e-04
6.499999999999999112e+00 -4.183286723402068752e-04
6.519999999999999574e+00 -3.966508416370292944e-04
6.539999999999999147e+00 -3.753798376890521427e-04
6.559999999999999609e+00 -3.541853836977089387e-04
6.579999999999999183e+00 -3.330841759772752708e-04
6.599999999999999645e+00 -3.121227579761381987e-04
6.619999999999999218e+00 -2.913476731474240466e-04
6.639999999999999680e+00 -2.708082923090840421e-04
6.659999999999999254e+00 -2.507236278725538670e-04
6.679999999999999716e+00 -2.315470523849665063e-04
6.699999999999999289e+00 -2.134222639652919029e-04
6.719999999999999751e+00 -1.962785779507231210e-04
6.739999999999999325e+00 -1.800417366463087643e-04
6.759999999999999787e+00 -1.646374823429525014e-04
6.779999999999999361e+00 -1.499696251862983609e-04
6.799999999999999822e+00 -1.356870140832161509e-04
6.819999999999999396e+00 -1.213682126973737729e-04
6.839999999999999858e+00 -1.069658667709229294e-04
6.859999999999999432e+00 -9.252682793707209252e-05
6.879999999999999005e+00 -7.809794782903667354e-05
6.899999999999999467e+00 -6.372607807531016633e-05
6.919999999999999041e+00 -4.952999727268758701e-05
6.939999999999999503e+00 -3.591283925924795839e-05
6.959999999999999076e+00 -2.314851116286611998e-05
6.979999999999999538e+00 -1.119913192906482613e-05
6.999999999999999112e+00 0.000000000000000000e+00
