# Scan along dir: (0.0, 0.0, 1.0)
# t	Energy(eV)
2.600000000000000089e+00 -7.161761124957894964e-01
2.700000000000000178e+00 -7.350110843853556730e-01
2.800000000000000266e+00 -7.494316473096254150e-01
2.900000000000000355e+00 -7.601912558736518832e-01
3.000000000000000000e+00 -7.678272157747998428e-01
3.100000000000000089e+00 -7.726981179327947480e-01
3.200000000000000178e+00 -7.751217161997869809e-01
3.300000000000000266e+00 -7.753611251220582368e-01
3.400000000000000355e+00 -7.736530694858818613e-01
3.500000000000000000e+00 -7.701982450473807695e-01
3.600000000000000089e+00 -7.651782775810329618e-01
3.700000000000000178e+00 -7.587431787606000455e-01
3.800000000000000266e+00 -7.510463189563054698e-01
3.900000000000000355e+00 -7.422097751514202812e-01
4.000000000000000000e+00 -7.323324339919259351e-01
4.099999999999999645e+00 -7.215042268876707965e-01
4.200000000000000178e+00 -7.098020356484355808e-01
4.300000000000000711e+00 -6.973517545112541960e-01
4.400000000000000355e+00 -6.845620470388853462e-01
4.500000000000000000e+00 -6.717526646942157953e-01
4.599999999999999645e+00 -6.585020321722288017e-01
4.700000000000000178e+00 -6.447659941910486303e-01
4.800000000000000711e+00 -6.317585712464861558e-01
4.900000000000000355e+00 -6.189632981769714881e-01
5.000000000000000000e+00 -6.062363018580478879e-01
5.099999999999999645e+00 -5.943282156803277871e-01
5.200000000000000178e+00 -5.823907650819353243e-01
5.300000000000000711e+00 -5.709210477008075380e-01
5.400000000000000355e+00 -5.598997379504115912e-01
5.500000000000000000e+00 -5.483396425847981703e-01
5.599999999999999645e+00 -5.371249659580201730e-01
5.700000000000000178e+00 -5.271778133463294047e-01
5.800000000000000711e+00 -5.161619066621945251e-01
5.900000000000000355e+00 -5.042599187105878400e-01
6.000000000000000000e+00 -4.955670241796159559e-01
6.099999999999999645e+00 -4.851291168767923878e-01
6.200000000000000178e+00 -4.733485104961641099e-01
6.300000000000000711e+00 -4.650609062680817196e-01
6.400000000000000355e+00 -4.546555394362892244e-01
6.500000000000000000e+00 -4.425895066688543267e-01
6.599999999999999645e+00 -4.338164716502066476e-01
6.700000000000001066e+00 -4.224936964359504721e-01
6.800000000000000711e+00 -4.093186989957255939e-01
6.900000000000000355e+00 -3.993688112305129323e-01
7.000000000000000000e+00 -3.866259571620451752e-01
7.099999999999999645e+00 -3.720114159672207599e-01
7.200000000000001066e+00 -3.615720498418775186e-01
7.300000000000000711e+00 -3.472637674747747205e-01
7.400000000000000355e+00 -3.313350022855621191e-01
7.500000000000000000e+00 -3.211609074084389448e-01
7.599999999999999645e+00 -3.053544779918593299e-01
7.700000000000001066e+00 -2.946968204784727874e-01
7.800000000000000711e+00 -2.831839355264076374e-01
7.900000000000000355e+00 -2.683894399538511166e-01
8.000000000000000000e+00 -2.575968613112862293e-01
8.099999999999999645e+00 -2.931183097828822248e-01
8.200000000000001066e+00 -2.902025594387636076e-01
8.300000000000000711e+00 -2.753816978095802170e-01
8.400000000000000355e+00 -2.584083585944414452e-01
8.500000000000000000e+00 -2.412865225312015305e-01
8.599999999999999645e+00 -2.243129062444961797e-01
8.700000000000001066e+00 -2.076825439164622367e-01
8.800000000000000711e+00 -1.915705033789860678e-01
8.900000000000000355e+00 -1.761319150639324427e-01
9.000000000000000000e+00 -1.614776806627737926e-01
9.099999999999999645e+00 -1.477268191010470133e-01
9.200000000000001066e+00 -1.350291511592227600e-01
9.300000000000000711e+00 -3.246124238849463772e-01
9.400000000000000355e+00 -5.190616437459283361e-01
9.500000000000000000e+00 -4.979034611128887455e-01
9.599999999999999645e+00 -4.732855027400995063e-01
9.700000000000001066e+00 -4.460215639524571785e-01
9.800000000000000711e+00 -4.168773572131718730e-01
9.900000000000000355e+00 -3.865773366380480525e-01
1.000000000000000000e+01 -3.558746820247873366e-01
1.009999999999999964e+01 -3.254351526734611255e-01
1.020000000000000107e+01 -2.958073074620219955e-01
1.030000000000000071e+01 -2.674293897399087072e-01
1.040000000000000036e+01 -2.406141017188767606e-01
1.050000000000000000e+01 -2.155704181417030796e-01
1.059999999999999964e+01 -1.924062305782303639e-01
1.069999999999999929e+01 -1.711596493248506157e-01
1.080000000000000071e+01 -1.518001592683764223e-01
1.090000000000000036e+01 -1.342636659623823725e-01
1.100000000000000000e+01 -1.184497333256788743e-01
1.109999999999999964e+01 -1.042512636504104862e-01
1.119999999999999929e+01 -9.154172218475853384e-02
1.130000000000000071e+01 -8.020154063683548884e-02
1.140000000000000036e+01 -7.010559310853947679e-02
1.150000000000000000e+01 -6.113854001622343048e-02
1.159999999999999964e+01 -5.318674935617639932e-02
1.169999999999999929e+01 -4.614222657548028295e-02
1.180000000000000071e+01 -3.983308477087055266e-02
1.190000000000000036e+01 -1.477109258952529203e-01
1.200000000000000000e+01 -1.303172679377326837e-01
1.209999999999999964e+01 -1.146208669849437811e-01
1.220000000000000107e+01 -1.005317942383414653e-01
1.230000000000000071e+01 -8.793678401243454346e-02
1.240000000000000036e+01 -7.671430420981772969e-02
1.250000000000000000e+01 -6.674158801580354350e-02
1.259999999999999964e+01 -5.789796513253220311e-02
1.270000000000000107e+01 -5.006986860004714046e-02
1.280000000000000071e+01 -4.315199047860973636e-02
1.290000000000000036e+01 -3.704669968097729083e-02
1.300000000000000000e+01 -3.166472415976828714e-02
1.309999999999999964e+01 -2.692529352672323739e-02
1.320000000000000107e+01 -2.275523559365888460e-02
1.330000000000000071e+01 -1.908815004621500222e-02
1.340000000000000036e+01 -1.586502307660753175e-02
1.350000000000000000e+01 -1.303241499315976881e-02
1.359999999999999964e+01 -1.054177301753700391e-02
1.370000000000000107e+01 -8.349044390456583642e-03
1.380000000000000071e+01 -6.412419941770330922e-03
1.390000000000000036e+01 -4.686435819273082615e-03
1.400000000000000000e+01 -3.103893222693443477e-03
1.409999999999999964e+01 -1.718588458716752143e-03
1.420000000000000107e+01 -5.839636209645782117e-04
1.430000000000000071e+01 2.326646382471153629e-04
1.440000000000000036e+01 -6.884487942330874688e-03
1.450000000000000000e+01 -5.454243256179491794e-03
1.459999999999999964e+01 -4.007376540970941647e-03
1.470000000000000107e+01 -2.645310620252860900e-03
1.480000000000000071e+01 -1.521643162922359238e-03
1.490000000000000036e+01 -9.093004164593132543e-04
1.500000000000000000e+01 0.000000000000000000e+00
