# ts	Energy
2.600000000000000089e+00 8.070320110677791092e-01
2.700000000000000178e+00 2.702175456732205383e-01
2.800000000000000266e+00 -1.034326602490427405e-01
2.900000000000000355e+00 -3.550377569279699053e-01
3.000000000000000000e+00 -5.162522098760691236e-01
3.100000000000000089e+00 -6.112934076923024485e-01
3.200000000000000178e+00 -6.585885839091663030e-01
3.300000000000000266e+00 -6.720632353467146380e-01
3.400000000000000355e+00 -6.621677688118352556e-01
3.500000000000000000e+00 -6.366788493688519956e-01
3.600000000000000089e+00 -6.013289762280980000e-01
3.700000000000000178e+00 -5.602920543230407446e-01
3.800000000000000266e+00 -5.165643294285571230e-01
3.900000000000000355e+00 -4.722557491179695255e-01
4.000000000000000000e+00 -4.288120907348074162e-01
4.099999999999999645e+00 -3.871902183985103107e-01
4.200000000000000178e+00 -3.479851467926859954e-01
4.300000000000000711e+00 -3.115320110095183281e-01
4.400000000000000355e+00 -2.779793439462712179e-01
4.500000000000000000e+00 -2.473442919101520587e-01
4.599999999999999645e+00 -2.195564527073523564e-01
4.700000000000000178e+00 -1.944861791839351817e-01
4.800000000000000711e+00 -1.719690426080582313e-01
4.900000000000000355e+00 -1.518211041382642179e-01
5.000000000000000000e+00 -1.338500315688384568e-01
5.099999999999999645e+00 -1.178643137801791418e-01
5.200000000000000178e+00 -1.036774053211582114e-01
5.300000000000000711e+00 -9.111236456725624322e-02
5.400000000000000355e+00 -8.000290455822200997e-02
5.500000000000000000e+00 -7.019540014410008411e-02
5.599999999999999645e+00 -6.154885848867985843e-02
5.700000000000000178e+00 -5.393460891966839199e-02
5.800000000000000711e+00 -4.723645748877514094e-02
5.900000000000000355e+00 -4.134948724291520605e-02
6.000000000000000000e+00 -3.617973494020620961e-02
6.099999999999999645e+00 -3.164318617628092412e-02
6.200000000000000178e+00 -2.766483679368025861e-02
6.300000000000000711e+00 -2.417814008789953562e-02
6.400000000000000355e+00 -2.112392524915751579e-02
6.500000000000000000e+00 -1.844989096511406856e-02
6.599999999999999645e+00 -1.610978678045649204e-02
6.700000000000001066e+00 -1.406271564373984262e-02
6.800000000000000711e+00 -1.227269902204186636e-02
6.900000000000000355e+00 -1.070797819248614502e-02
7.000000000000000000e+00 -9.340657803268648252e-03
7.099999999999999645e+00 -8.146210056253710974e-03
7.200000000000001066e+00 -7.103056202187651991e-03
7.300000000000000711e+00 -6.192291673966288101e-03
7.400000000000000355e+00 -5.397303308195766647e-03
7.500000000000000000e+00 -4.703544076896104542e-03
7.599999999999999645e+00 -4.098267193767934913e-03
7.700000000000001066e+00 -3.570289625226763519e-03
7.800000000000000711e+00 -3.109844253540661185e-03
7.900000000000000355e+00 -2.708363074423569827e-03
8.000000000000000000e+00 -2.358367619695656003e-03
8.099999999999999645e+00 -2.053304605596828480e-03
8.200000000000001066e+00 -1.787454171186197982e-03
8.300000000000000711e+00 -1.555816084041428127e-03
8.400000000000000355e+00 -1.354016334854435399e-03
8.500000000000000000e+00 -1.178241956055980921e-03
8.599999999999999645e+00 -1.025156760534606804e-03
8.700000000000001066e+00 -8.918523213150564288e-04
8.800000000000000711e+00 -7.757905303145129494e-04
8.900000000000000355e+00 -6.747525558914446719e-04
9.000000000000000000e+00 -5.868071710399824781e-04
9.099999999999999645e+00 -5.102660960236704568e-04
9.200000000000001066e+00 -4.436598032109273504e-04
9.300000000000000711e+00 -3.857061060417166232e-04
9.400000000000000355e+00 -3.352861524286154804e-04
9.500000000000000000e+00 -2.914267245213153501e-04
9.599999999999999645e+00 -2.532774784866909101e-04
9.700000000000001066e+00 -2.200993656575889190e-04
9.800000000000000711e+00 -1.912477446777138823e-04
9.900000000000000355e+00 -1.661606742389132307e-04
1.000000000000000000e+01 -1.443497600654986002e-04
1.009999999999999964e+01 -1.253884097760504801e-04
1.020000000000000107e+01 -1.089065236077324528e-04
1.030000000000000071e+01 -9.458109282878268687e-05
1.040000000000000036e+01 -8.213111347199486545e-05
1.050000000000000000e+01 -7.131219870970539887e-05
1.059999999999999964e+01 -6.191123191090497357e-05
1.069999999999999929e+01 -5.374352339426735625e-05
1.080000000000000071e+01 -4.664765211082055885e-05
1.090000000000000036e+01 -4.048357819819159431e-05
1.100000000000000000e+01 -3.512949097572715118e-05
1.109999999999999964e+01 -3.047897580321645705e-05
1.119999999999999929e+01 -2.644025819487083595e-05
1.130000000000000071e+01 -2.293303593559059550e-05
1.140000000000000036e+01 -1.988744725966995475e-05
1.150000000000000000e+01 -1.724330712926658293e-05
1.159999999999999964e+01 -1.494750684072343461e-05
1.169999999999999929e+01 -1.295445722293564472e-05
1.180000000000000071e+01 -1.122454145585649599e-05
1.190000000000000036e+01 -9.722745502482865732e-06
1.200000000000000000e+01 -8.419367741652195036e-06
1.209999999999999964e+01 -7.288122574333755210e-06
1.220000000000000107e+01 -6.306244827669615916e-06
1.230000000000000071e+01 -5.454442352004207351e-06
1.240000000000000036e+01 -4.715190399462443338e-06
1.250000000000000000e+01 -4.073829400930151223e-06
1.259999999999999964e+01 -3.517558381904706266e-06
1.270000000000000107e+01 -3.034706106852524954e-06
1.280000000000000071e+01 -2.615968322405848312e-06
1.290000000000000036e+01 -2.252713584560694926e-06
1.300000000000000000e+01 -1.937410287755625404e-06
1.309999999999999964e+01 -1.664209527962867696e-06
1.320000000000000107e+01 -1.427227422468035911e-06
1.330000000000000071e+01 -1.221644544191491377e-06
1.340000000000000036e+01 -1.043592797511649906e-06
1.350000000000000000e+01 -8.889455207494734168e-07
1.359999999999999964e+01 -7.547902334259504187e-07
1.370000000000000107e+01 -6.386600430730027256e-07
1.380000000000000071e+01 -5.377762604119595835e-07
1.390000000000000036e+01 -4.504677533212486651e-07
1.400000000000000000e+01 -3.749668890939972243e-07
1.409999999999999964e+01 -3.092329659004633413e-07
1.420000000000000107e+01 -2.523316453562074457e-07
1.430000000000000071e+01 -2.030509351769183013e-07
1.440000000000000036e+01 -1.600807504331669406e-07
1.450000000000000000e+01 -1.231037423110592499e-07
1.459999999999999964e+01 -9.120008082064146038e-08
1.470000000000000107e+01 -6.327884172208086966e-08
1.480000000000000071e+01 -3.921389746253112207e-08
1.490000000000000036e+01 -1.835705187858138743e-08
1.500000000000000000e+01 0.000000000000000000e+00
