# ts	Energy
0.000000000000000000e+00 -3.628227718266430202e-07
9.934850074145558374e-02 1.554653255160243219e-03
1.986970014829111675e-01 3.347795154739596768e-03
2.980455022243667651e-01 5.288267946544245035e-03
3.973940029658223350e-01 7.283107497073615377e-03
4.967425037072779048e-01 9.244749886322622956e-03
5.960910044487335302e-01 1.109538723779834868e-02
6.954395051901890445e-01 1.277290419906229602e-02
7.947880059316446699e-01 1.423431247966044921e-02
8.941365066731002953e-01 1.545599111798789949e-02
9.934850074145558096e-01 1.643399650470689366e-02
1.092833508156011435e+00 1.718160841139759754e-02
1.192182008897467060e+00 1.772528804773099154e-02
1.291530509638922686e+00 1.809839270472002326e-02
1.390879010380378089e+00 1.833726131982427177e-02
1.490227511121833714e+00 1.847651967240926396e-02
1.589576011863289340e+00 1.854145408138263562e-02
1.688924512604744965e+00 1.854699898810041603e-02
1.788273013346200591e+00 1.849405646558333061e-02
1.887621514087655994e+00 1.837089722517903922e-02
1.986970014829111619e+00 1.815320632075723140e-02
2.086318515570567467e+00 1.780822448336794039e-02
2.185667016312022870e+00 1.730026600932177416e-02
2.285015517053478273e+00 1.659373083240156532e-02
2.384364017794934121e+00 1.566073104028609109e-02
2.483712518536389524e+00 1.448531222395343931e-02
2.583061019277845372e+00 1.306830136245551444e-02
2.682409520019300775e+00 1.142915771053987228e-02
2.781758020760756178e+00 9.606936454657155622e-03
2.881106521502212026e+00 7.660819496214887891e-03
2.980455022243667429e+00 5.665519191879297978e-03
3.079803522985123276e+00 3.707661391786132299e-03
3.179152023726578680e+00 1.879368931953173671e-03
3.278500524468034083e+00 2.727201135512835606e-04
3.377849025209489930e+00 -1.028472469049912519e-03
3.477197525950945334e+00 -1.954069451946427449e-03
3.576546026692401181e+00 -2.452363351792996582e-03
3.675894527433856585e+00 -2.495848380943854750e-03
3.775243028175311988e+00 -2.082544801084385000e-03
3.874591528916767835e+00 -1.235031540717468346e-03
3.973940029658223239e+00 -2.095701083781875695e-07
4.073288530399678642e+00 1.554980204956368794e-03
4.172637031141134933e+00 3.348052269744439258e-03
4.271985531882590337e+00 5.288213918643425160e-03
4.371334032624045740e+00 7.283012136298783190e-03
4.470682533365501143e+00 9.244529557011826881e-03
4.570031034106956547e+00 1.109539161731909473e-02
4.669379534848412838e+00 1.277312855027368244e-02
4.768728035589868242e+00 1.423443064806795277e-02
4.868076536331323645e+00 1.545603905206371920e-02
4.967425037072779048e+00 1.643428411075875673e-02
5.066773537814234452e+00 1.718211149361170698e-02
5.166122038555690743e+00 1.772532990079156434e-02
5.265470539297146146e+00 1.809824292240591603e-02
5.364819040038601550e+00 1.833731866343635275e-02
5.464167540780056953e+00 1.847674437518254109e-02
5.563516041521512356e+00 1.854183573930257012e-02
5.662864542262968648e+00 1.854708669837590307e-02
5.762213043004424051e+00 1.849432570738374082e-02
5.861561543745879455e+00 1.837084743561723243e-02
5.960910044487334858e+00 1.815314796674893927e-02
6.060258545228790261e+00 1.780847742692603930e-02
6.159607045970246553e+00 1.730046894549852610e-02
6.258955546711701956e+00 1.659391033531809612e-02
6.358304047453157359e+00 1.566079789723273663e-02
6.457652548194612763e+00 1.448534153811475989e-02
6.557001048936068166e+00 1.306819348760823729e-02
6.656349549677524458e+00 1.142913531383671355e-02
6.755698050418979861e+00 9.607035731025614922e-03
6.855046551160435264e+00 7.660749228084462459e-03
6.954395051901890668e+00 5.665581929747975920e-03
7.053743552643346071e+00 3.707874965820590063e-03
7.153092053384802362e+00 1.879811565743683133e-03
7.252440554126257766e+00 2.730020207413197397e-04
7.351789054867713169e+00 -1.028622540558910003e-03
7.451137555609168572e+00 -1.954060468914775583e-03
7.550486056350623976e+00 -2.452317472860787717e-03
7.649834557092080267e+00 -2.495790404463793521e-03
7.749183057833535671e+00 -2.082215446495894184e-03
7.848531558574991074e+00 -1.234887408683160714e-03
7.947880059316446477e+00 -8.721788180565681614e-08
8.047228560057902769e+00 1.554935551799196958e-03
8.146577060799357284e+00 3.348045725128923067e-03
8.245925561540813575e+00 5.288437254682420985e-03
8.345274062282269867e+00 7.283193880428306954e-03
8.444622563023724382e+00 9.244698953409180575e-03
8.543971063765180673e+00 1.109551515890538909e-02
8.643319564506635189e+00 1.277304420012814745e-02
8.742668065248091480e+00 1.423423437265203262e-02
8.842016565989547772e+00 1.545608157881073197e-02
8.941365066731002287e+00 1.643427576629630238e-02
9.040713567472458578e+00 1.718206515256914813e-02
9.140062068213913093e+00 1.772556280303083653e-02
9.239410568955369385e+00 1.809841962113045710e-02
9.338759069696825676e+00 1.833758977514232669e-02
9.438107570438280192e+00 1.847670792656908034e-02
9.537456071179736483e+00 1.854180034973795799e-02
9.636804571921190998e+00 1.854729255572973301e-02
9.736153072662647290e+00 1.849432992478616811e-02
9.835501573404103581e+00 1.837099618098569920e-02
9.934850074145558096e+00 1.815323894119069692e-02
1.003419857488701439e+01 1.780869851979405283e-02
1.013354707562846890e+01 1.730057732571133045e-02
1.023289557636992519e+01 1.659384394722529521e-02
1.033224407711138149e+01 1.566082227573950547e-02
1.043159257785283600e+01 1.448527005957744862e-02
1.053094107859429229e+01 1.306849611299343294e-02
1.063028957933574681e+01 1.142923758883407359e-02
1.072963808007720310e+01 9.606980981298640643e-03
1.082898658081865939e+01 7.660816480976162524e-03
1.092833508156011391e+01 5.665659696068026108e-03
1.102768358230157020e+01 3.707978997907535046e-03
1.112703208304302471e+01 1.879708174040484181e-03
1.122638058378448100e+01 2.729754109203064161e-04
1.132572908452593730e+01 -1.028454244090148961e-03
1.142507758526739181e+01 -1.954002203959248618e-03
1.152442608600884810e+01 -2.452138176207707687e-03
1.162377458675030262e+01 -2.495877827982884156e-03
1.172312308749175891e+01 -2.082398319467326786e-03
1.182247158823321520e+01 -1.234776547279103909e-03
1.192182008897466972e+01 0.000000000000000000e+00
