# Scan along dir: [2. 1. 0.]
# t	Energy(eV)
0.000000000000000000e+00 -2.030201053527309618e-01
1.000000000000000056e-01 -1.874141818485299815e-01
2.000000000000000111e-01 -1.679798481850149905e-01
3.000000000000000444e-01 -1.452751654140094217e-01
4.000000000000000222e-01 -1.199279137646036553e-01
5.000000000000000000e-01 -9.260747088900433965e-02
6.000000000000000888e-01 -6.402892018137285035e-02
7.000000000000000666e-01 -3.489897514874096274e-02
8.000000000000000444e-01 -5.944873163727937282e-03
9.000000000000000222e-01 2.215049886800812828e-02
1.000000000000000000e+00 4.876789183676288886e-02
1.100000000000000089e+00 7.338273648130977378e-02
1.200000000000000178e+00 9.552877075907639792e-02
1.300000000000000044e+00 1.148049615147352931e-01
1.400000000000000133e+00 1.308688156182493678e-01
1.500000000000000000e+00 1.434358226435326067e-01
1.600000000000000089e+00 1.522891301841715617e-01
1.700000000000000178e+00 1.572845609680797452e-01
1.800000000000000044e+00 1.583619342511499717e-01
1.900000000000000133e+00 1.555495745223947068e-01
2.000000000000000000e+00 1.489802517574725371e-01
2.100000000000000089e+00 1.387671028285493158e-01
2.200000000000000178e+00 7.242629629379848666e-02
2.300000000000000266e+00 7.505301460338387187e-02
2.400000000000000355e+00 7.815587902806075959e-02
2.500000000000000000e+00 8.163027688586810271e-02
2.600000000000000089e+00 8.536902177975269623e-02
2.700000000000000178e+00 8.923082586970743080e-02
2.800000000000000266e+00 9.308913804466367736e-02
2.900000000000000355e+00 9.679122426712361005e-02
3.000000000000000000e+00 1.001822969368033611e-01
3.100000000000000089e+00 1.031355968400800016e-01
3.200000000000000178e+00 1.055630290171700736e-01
3.300000000000000266e+00 1.074149370995618469e-01
3.400000000000000355e+00 1.086796899079831569e-01
3.500000000000000000e+00 1.094003050749976502e-01
3.600000000000000089e+00 1.097029928266848309e-01
3.700000000000000178e+00 1.097849220593487551e-01
3.800000000000000266e+00 1.098595684466552314e-01
3.900000000000000355e+00 1.101032859510318040e-01
4.000000000000000000e+00 1.106228600211260904e-01
4.100000000000000533e+00 1.114592751784519997e-01
4.200000000000000178e+00 1.125826869502737360e-01
4.299999999999999822e+00 1.138921240160413184e-01
4.400000000000000355e+00 1.151699959861689493e-01
4.500000000000000000e+00 1.158310832177051886e-01
4.600000000000000533e+00 8.836681314959626832e-02
4.700000000000000178e+00 8.552829330043953959e-02
4.800000000000000711e+00 8.322619226874117260e-02
4.900000000000000355e+00 8.076370023409218390e-02
5.000000000000000000e+00 7.856668953360079755e-02
5.100000000000000533e+00 7.701666320659628084e-02
5.200000000000000178e+00 7.627690750794480223e-02
5.300000000000000711e+00 7.638765741850361835e-02
5.400000000000000355e+00 7.733066318163084318e-02
5.500000000000000000e+00 7.904827479796194822e-02
5.600000000000000533e+00 8.142134213791907271e-02
5.700000000000000178e+00 8.434926701005940330e-02
5.800000000000000711e+00 8.769684920891496205e-02
5.900000000000000355e+00 9.128164579910258425e-02
6.000000000000000000e+00 9.486352244762796815e-02
6.100000000000000533e+00 9.829034487118226693e-02
6.200000000000000178e+00 1.014499688885077688e-01
6.300000000000000711e+00 1.042333484347657269e-01
6.400000000000000355e+00 1.065580494566868985e-01
6.500000000000000000e+00 1.083740040321679032e-01
6.600000000000000533e+00 1.096628921383948629e-01
6.700000000000000178e+00 1.104347081919927476e-01
6.800000000000000711e+00 1.107176723621745573e-01
6.900000000000000355e+00 1.105527754375970062e-01
7.000000000000000000e+00 1.099887725429686824e-01
7.100000000000000533e+00 1.090738879737580547e-01
7.200000000000000178e+00 1.078516639183453307e-01
7.300000000000000711e+00 1.063608031710407964e-01
7.400000000000000355e+00 1.046312889591720641e-01
7.500000000000000000e+00 1.026787844359775548e-01
7.600000000000000533e+00 1.004900840741997925e-01
7.700000000000000178e+00 9.794213053923028767e-02
7.800000000000000711e+00 5.532217343988721225e-02
7.900000000000000355e+00 4.704373880908718775e-02
8.000000000000000000e+00 3.922985678665114051e-02
8.099999999999999645e+00 3.194999648136453985e-02
8.200000000000001066e+00 2.526098570108104013e-02
8.300000000000000711e+00 1.923065817283786672e-02
8.400000000000000355e+00 1.390840861481956736e-02
8.500000000000000000e+00 9.363038791462496846e-03
8.599999999999999645e+00 5.638087211087938755e-03
8.700000000000001066e+00 2.783924677309812523e-03
8.800000000000000711e+00 8.454512426170346373e-04
8.900000000000000355e+00 -1.223851224430028140e-04
9.000000000000000000e+00 -8.529648876320905515e-05
9.099999999999999645e+00 9.977977072219701427e-04
9.200000000000001066e+00 3.178920672094243116e-03
9.300000000000000711e+00 6.467053938593370077e-03
9.400000000000000355e+00 1.088494555883645631e-02
9.500000000000000000e+00 1.644041347308977663e-02
9.600000000000001421e+00 2.312498064105694695e-02
9.700000000000001066e+00 3.089245860670297716e-02
9.800000000000000711e+00 3.968892390211431476e-02
9.900000000000000355e+00 4.941202816595158254e-02
1.000000000000000000e+01 5.993014283255915231e-02
1.010000000000000142e+01 7.108160132974017387e-02
1.020000000000000107e+01 8.269412880378590458e-02
1.030000000000000071e+01 9.455024746584728135e-02
1.040000000000000036e+01 1.059779543073973151e-01
1.050000000000000000e+01 6.800949572838455026e-02
1.060000000000000142e+01 6.749625517059820723e-02
1.070000000000000107e+01 6.739397445597683500e-02
1.080000000000000071e+01 6.760050062664335613e-02
1.090000000000000036e+01 6.829811380601968906e-02
1.100000000000000000e+01 6.956290041374124655e-02
1.110000000000000142e+01 7.141126154673260729e-02
1.120000000000000107e+01 7.381698927341817651e-02
1.130000000000000071e+01 7.672678852330072630e-02
1.140000000000000036e+01 8.005170472936073978e-02
1.150000000000000000e+01 8.368555977002367641e-02
1.160000000000000142e+01 8.751469955605406525e-02
1.170000000000000107e+01 9.139097229588832860e-02
1.180000000000000071e+01 9.518078762727411046e-02
1.190000000000000036e+01 9.872816571403308927e-02
1.200000000000000000e+01 1.018885967640548174e-01
1.210000000000000142e+01 1.045579027599443656e-01
1.220000000000000107e+01 1.066681909580107224e-01
1.230000000000000071e+01 1.081912225114560755e-01
1.240000000000000036e+01 1.091427832776350471e-01
1.250000000000000000e+01 1.096095896792679270e-01
1.260000000000000142e+01 1.097621543815634482e-01
1.270000000000000107e+01 1.098153310637068891e-01
1.280000000000000071e+01 1.099660898407921472e-01
1.290000000000000036e+01 1.103545659806255408e-01
1.300000000000000000e+01 1.110499840696559382e-01
1.310000000000000142e+01 1.120542947700995384e-01
1.320000000000000107e+01 1.133003496401099319e-01
1.330000000000000071e+01 1.146299755166886314e-01
1.340000000000000036e+01 1.156958328653736601e-01
1.350000000000000000e+01 8.940953977671295405e-02
1.360000000000000142e+01 8.663942810664426730e-02
1.370000000000000107e+01 8.438576377739570589e-02
1.380000000000000071e+01 8.186789418677209440e-02
1.390000000000000036e+01 7.947461526866961279e-02
1.400000000000000000e+01 7.760930756270578712e-02
1.410000000000000142e+01 7.649943652484259005e-02
1.420000000000000107e+01 7.623407124824010950e-02
1.430000000000000071e+01 7.682120194489128195e-02
1.440000000000000036e+01 7.819262319638387027e-02
1.450000000000000000e+01 8.028569045843836349e-02
1.460000000000000142e+01 8.299050308802069509e-02
1.470000000000000107e+01 8.617627102631431057e-02
1.480000000000000071e+01 8.967901130510291807e-02
1.490000000000000036e+01 9.329134927316085069e-02
1.500000000000000000e+01 9.679755533342149221e-02
1.510000000000000142e+01 1.000917274003865209e-01
1.520000000000000107e+01 1.030539618463039986e-01
1.530000000000000071e+01 1.055894806417736476e-01
1.540000000000000036e+01 1.076342700404468999e-01
1.550000000000000000e+01 1.091564965916482777e-01
1.560000000000000142e+01 1.101551736495052225e-01
1.570000000000000107e+01 1.106501826090280360e-01
1.580000000000000071e+01 1.106778029057902124e-01
1.590000000000000036e+01 1.102839504743244881e-01
1.600000000000000000e+01 1.095192599368610686e-01
1.610000000000000142e+01 1.084280209319792299e-01
1.619999999999999929e+01 1.070518647610190222e-01
1.630000000000000071e+01 1.054247598221227378e-01
1.640000000000000213e+01 1.035704808406125998e-01
1.650000000000000000e+01 1.014912651335651006e-01
1.660000000000000142e+01 9.913425854266000314e-02
1.669999999999999929e+01 9.607625836962707666e-02
1.680000000000000071e+01 5.066789394471493679e-02
1.690000000000000213e+01 4.263194858610797056e-02
1.700000000000000000e+01 3.510599862248486858e-02
1.710000000000000142e+01 2.814441825920388496e-02
1.719999999999999929e+01 2.181551888940802542e-02
1.730000000000000071e+01 1.617697795776829039e-02
1.740000000000000213e+01 1.127831268007284393e-02
1.750000000000000000e+01 7.182284309276365519e-03
1.760000000000000142e+01 3.937114394807483819e-03
1.769999999999999929e+01 1.585857569847526349e-03
1.780000000000000071e+01 1.832460377606537349e-04
1.790000000000000213e+01 -2.272369486879810552e-04
1.800000000000000000e+01 3.864957316372930052e-04
1.810000000000000142e+01 2.073855653379919062e-03
1.819999999999999929e+01 4.870525672282965957e-03
1.830000000000000071e+01 8.788477512231995803e-03
1.840000000000000213e+01 1.384212216478086788e-02
1.850000000000000000e+01 2.002826097350007828e-02
1.860000000000000142e+01 2.732056505890545495e-02
1.869999999999999929e+01 3.566935087943257088e-02
1.880000000000000071e+01 4.499980693460470249e-02
1.890000000000000213e+01 5.518670392571634054e-02
1.900000000000000000e+01 6.607749329860679310e-02
1.910000000000000142e+01 7.750892753183702411e-02
1.920000000000000284e+01 8.928617536308269820e-02
1.930000000000000071e+01 1.010694814812880260e-01
1.940000000000000213e+01 1.114486711246605033e-01
1.950000000000000000e+01 6.778265324754784160e-02
1.960000000000000142e+01 6.734869688849265401e-02
1.970000000000000284e+01 6.742119794519974008e-02
1.980000000000000071e+01 6.791905015542498703e-02
1.990000000000000213e+01 6.893181892289756973e-02
2.000000000000000000e+01 7.052310194076705230e-02
2.010000000000000142e+01 7.268698311180621374e-02
2.020000000000000284e+01 7.538342245250362339e-02
2.030000000000000071e+01 7.853522873921292557e-02
2.040000000000000213e+01 8.204588982113270035e-02
2.050000000000000000e+01 8.580676672207054878e-02
2.060000000000000142e+01 8.967549686984499502e-02
2.070000000000000284e+01 9.352455887649480104e-02
2.080000000000000071e+01 9.719621849002102465e-02
2.090000000000000213e+01 1.005446297014809254e-01
2.100000000000000000e+01 1.034417845334045793e-01
2.110000000000000142e+01 1.058052903102972842e-01
2.120000000000000284e+01 1.075896833783374085e-01
2.130000000000000071e+01 1.087886547665335435e-01
2.140000000000000213e+01 1.094535989998877135e-01
2.150000000000000000e+01 1.097196743739572433e-01
2.160000000000000142e+01 1.097904786570538249e-01
2.170000000000000284e+01 1.098766371880501858e-01
2.180000000000000071e+01 1.101474762405398877e-01
2.190000000000000213e+01 1.107027447997981362e-01
2.200000000000000000e+01 1.115745658192812684e-01
2.210000000000000142e+01 1.127261629772431384e-01
2.220000000000000284e+01 1.140461738963476357e-01
2.230000000000000071e+01 1.152965748394993994e-01
2.240000000000000213e+01 1.157830107946424825e-01
2.250000000000000000e+01 8.809488861683734129e-02
2.260000000000000142e+01 8.523468513108101163e-02
2.270000000000000284e+01 8.294157771071786200e-02
2.280000000000000071e+01 8.048784971645073227e-02
2.290000000000000213e+01 7.835178862344438500e-02
2.300000000000000000e+01 7.688891957603782856e-02
2.310000000000000142e+01 7.624656583088018635e-02
2.320000000000000284e+01 7.645127601616596991e-02
2.330000000000000071e+01 7.748501951913633334e-02
2.340000000000000213e+01 7.928440253479518418e-02
2.350000000000000000e+01 8.172879491861229084e-02
2.360000000000000142e+01 8.471427635329442651e-02
2.370000000000000284e+01 8.810226425392908567e-02
2.380000000000000071e+01 9.169906111183889763e-02
2.390000000000000213e+01 9.526478571434759957e-02
2.400000000000000000e+01 9.866863334322228951e-02
2.410000000000000142e+01 1.017897451027445221e-01
2.420000000000000284e+01 1.045243218987219613e-01
2.430000000000000071e+01 1.067919709387812333e-01
2.440000000000000213e+01 1.085481860755570516e-01
2.450000000000000000e+01 1.097767810884251460e-01
2.460000000000000142e+01 1.104909298778293802e-01
2.470000000000000284e+01 1.107204010002127426e-01
2.480000000000000071e+01 1.105075106105872784e-01
2.490000000000000213e+01 1.099010864447600433e-01
2.500000000000000000e+01 1.089486832343267153e-01
2.510000000000000142e+01 1.076939850340119520e-01
2.520000000000000284e+01 1.061738869057431423e-01
2.530000000000000071e+01 1.044184073811122992e-01
2.540000000000000213e+01 1.024404757700581037e-01
2.550000000000000000e+01 1.002205859994114157e-01
2.560000000000000142e+01 9.760690107048164421e-02
2.570000000000000284e+01 5.435573994719966606e-02
2.580000000000000071e+01 4.612515261590122151e-02
2.590000000000000213e+01 3.835842166134817433e-02
2.600000000000000000e+01 3.115144857380869325e-02
2.610000000000000142e+01 2.453568608759404412e-02
2.620000000000000284e+01 1.858391341778498074e-02
2.630000000000000071e+01 1.334748630151594284e-02
2.640000000000000213e+01 8.892700085905147489e-03
2.650000000000000000e+01 5.264801942824082204e-03
2.660000000000000142e+01 2.514307634640555733e-03
2.670000000000000284e+01 6.845521762635087271e-04
2.680000000000000071e+01 -1.697566719558452064e-04
2.690000000000000213e+01 -1.573712186031528404e-05
2.700000000000000000e+01 1.190719010352836449e-03
2.710000000000000142e+01 3.498093661085555084e-03
2.720000000000000284e+01 6.914751830424226142e-03
2.730000000000000071e+01 1.146276058133866016e-02
2.740000000000000213e+01 1.714991317593161924e-02
2.750000000000000000e+01 2.396005149055602246e-02
2.760000000000000142e+01 3.185071978497422407e-02
2.770000000000000284e+01 4.075708320564341847e-02
2.780000000000000071e+01 5.057744065496994068e-02
2.790000000000000213e+01 6.117716884225021801e-02
2.800000000000000000e+01 7.239186074826919892e-02
2.810000000000000142e+01 8.404449878260900064e-02
2.820000000000000284e+01 9.591179784842873701e-02
2.830000000000000071e+01 1.071950691533731792e-01
2.840000000000000213e+01 6.796340037311265903e-02
2.850000000000000000e+01 6.746017270142390387e-02
2.860000000000000142e+01 6.739263388539118438e-02
2.870000000000000284e+01 6.765295708844654143e-02
2.880000000000000071e+01 6.841283014749599545e-02
2.890000000000000213e+01 6.974412002036300962e-02
2.900000000000000000e+01 7.165952877831660572e-02
2.910000000000000142e+01 7.412827868967886147e-02
2.920000000000000284e+01 7.708948564874296139e-02
2.930000000000000071e+01 8.045525418381727079e-02
2.940000000000000213e+01 8.411714627510624709e-02
2.950000000000000000e+01 8.795373785596716232e-02
2.960000000000000142e+01 9.182905425912046837e-02
2.970000000000000284e+01 9.560218424236843759e-02
2.980000000000000071e+01 9.911244693076648460e-02
2.990000000000000213e+01 1.022209025030669238e-01
3.000000000000000000e+01 1.048284354803850071e-01
3.010000000000000142e+01 1.068724129384897026e-01
3.020000000000000284e+01 1.083281463098342279e-01
3.030000000000000071e+01 1.092184912330265156e-01
3.040000000000000213e+01 1.096391251749042617e-01
3.050000000000000000e+01 1.097692327862129780e-01
3.060000000000000142e+01 1.098243930991120720e-01
3.070000000000000284e+01 1.099969294454044011e-01
3.080000000000000071e+01 1.104179428649838535e-01
3.090000000000000213e+01 1.111499241673725713e-01
3.100000000000000000e+01 1.121867441140573796e-01
3.110000000000000142e+01 1.134526731304670299e-01
3.120000000000000284e+01 1.147754944400749544e-01
3.130000000000000071e+01 1.157649055053293630e-01
3.140000000000000213e+01 8.913988444205234174e-02
3.150000000000000000e+01 8.635236496558418295e-02
3.160000000000000142e+01 8.408774910803806790e-02
3.170000000000000284e+01 8.157706420503796352e-02
3.180000000000000071e+01 7.922814085278195861e-02
3.190000000000000213e+01 7.744087421647671832e-02
3.200000000000000000e+01 7.642547043637382131e-02
3.210000000000000142e+01 7.626058677998104329e-02
3.220000000000000284e+01 7.694610912672361636e-02
3.230000000000000426e+01 7.840124990120855841e-02
3.239999999999999858e+01 8.056979521785434528e-02
3.250000000000000000e+01 8.333323425357752612e-02
3.260000000000000142e+01 8.656365264682408522e-02
3.270000000000000284e+01 9.009062739115547558e-02
3.280000000000000426e+01 9.370000585100024537e-02
3.289999999999999858e+01 9.718808368887987825e-02
3.300000000000000000e+01 1.004494391882180260e-01
3.310000000000000142e+01 1.033667066762160580e-01
3.320000000000000284e+01 1.058493684467158857e-01
3.330000000000000426e+01 1.078355268441693049e-01
3.339999999999999858e+01 1.092975254701031851e-01
3.350000000000000000e+01 1.102363774801911056e-01
3.360000000000000142e+01 1.106759713472680318e-01
3.370000000000000284e+01 1.106529164878353733e-01
3.380000000000000426e+01 1.102143429936366381e-01
3.389999999999999858e+01 1.094096756774751711e-01
3.400000000000000000e+01 1.082845362211042328e-01
3.410000000000000142e+01 1.068780321551199286e-01
3.420000000000000284e+01 1.052238589939231694e-01
3.430000000000000426e+01 1.033436422571836211e-01
3.439999999999999858e+01 1.012371479384417405e-01
3.450000000000000000e+01 9.883801776425471530e-02
3.460000000000000142e+01 9.547859424035953779e-02
3.470000000000000284e+01 4.972601541646382017e-02
3.480000000000000426e+01 4.174371358460549075e-02
3.489999999999999858e+01 3.427920656069671779e-02
3.500000000000000000e+01 2.738646292081448053e-02
3.510000000000000142e+01 2.113330131287316505e-02
3.520000000000000284e+01 1.557026472765388192e-02
3.530000000000000426e+01 1.076486828427913878e-02
3.539999999999999858e+01 6.765617472272555943e-03
3.550000000000000000e+01 3.621762975900555404e-03
3.560000000000000142e+01 1.376543924485051917e-03
3.570000000000000284e+01 8.547117133872461636e-05
3.580000000000000426e+01 -2.107605241001841989e-04
3.589999999999999858e+01 5.241543225289468921e-04
3.600000000000000000e+01 2.343782941021999022e-03
3.610000000000000142e+01 5.261684948447697963e-03
3.620000000000000284e+01 9.309876226769819851e-03
3.630000000000000426e+01 1.449322968316035798e-02
3.639999999999999858e+01 2.080810593354032179e-02
3.650000000000000000e+01 2.822507728531986615e-02
3.660000000000000142e+01 3.668920947338971672e-02
3.670000000000000284e+01 4.612529004437204705e-02
3.680000000000000426e+01 5.640054119891457773e-02
3.689999999999999858e+01 6.736085707833305847e-02
3.700000000000000000e+01 7.884615143274720239e-02
3.710000000000000142e+01 9.064802207777322707e-02
3.720000000000000284e+01 1.023678313988782840e-01
3.730000000000000426e+01 6.812961077131607368e-02
3.739999999999999858e+01 6.761024431097029108e-02
3.750000000000000000e+01 6.743137778422347850e-02
3.760000000000000142e+01 6.748771561561461851e-02
3.770000000000000284e+01 6.800813951092132825e-02
3.780000000000000426e+01 6.908465928218321395e-02
3.789999999999999858e+01 7.074246105052717226e-02
3.800000000000000000e+01 7.296904027274653259e-02
3.810000000000000142e+01 7.572185350184268415e-02
3.820000000000000284e+01 7.892097982833456982e-02
3.830000000000000426e+01 8.246613268091040894e-02
3.840000000000000568e+01 8.624712696891423391e-02
3.850000000000000000e+01 9.012016475532602655e-02
3.860000000000000142e+01 9.395899229938819985e-02
3.870000000000000284e+01 9.760082530123925793e-02
3.880000000000000426e+01 1.009010696215453251e-01
3.890000000000000568e+01 1.037408739160956550e-01
3.900000000000000000e+01 1.060393854214263243e-01
3.910000000000000142e+01 1.077562436298524773e-01
3.920000000000000284e+01 1.088896059845443354e-01
3.930000000000000426e+01 1.095007552435349751e-01
3.940000000000000568e+01 1.097334832952747696e-01
3.950000000000000000e+01 1.097959744375445190e-01
3.960000000000000142e+01 1.098953275246654648e-01
3.970000000000000284e+01 1.101954566326779350e-01
